time (s)	magX	magY	magZ
1364.328805	153.374634	-103.707779	-53.747517
1364.332132	154.368210	-104.233780	-54.156635
1364.335466	154.543533	-105.344246	-55.150204
1364.338792	155.303329	-105.811813	-55.793102
1364.342128	156.530685	-106.104027	-56.026882
1364.345487	157.524261	-107.506714	-58.014027
1364.348790	158.868500	-107.798950	-57.721806
1364.352130	159.569839	-108.500290	-58.364697
1364.355457	160.446518	-109.786095	-59.358273
1364.358794	161.615433	-110.370544	-60.936291
1364.362126	162.784332	-111.364113	-62.514324
1364.365458	164.713028	-113.292816	-63.741673
1364.368795	166.232620	-114.461723	-65.261246
1364.372127	166.992401	-115.221512	-66.839279
1364.375476	168.395081	-116.156639	-68.066620
1364.378796	170.206894	-117.091766	-70.229111
1364.382126	172.486267	-117.793106	-71.982468
1364.385454	173.947403	-119.195793	-73.443588
1364.388819	175.759201	-120.306252	-75.489197
1364.392122	177.921692	-121.708946	-76.424316
1364.395875	179.090591	-123.053177	-79.229691
1364.399212	180.551727	-124.631210	-81.099945
1364.402556	182.480423	-125.566345	-83.262421
1364.405875	184.642899	-126.910583	-85.366455
1364.409208	186.337814	-127.670380	-87.938049
1364.412576	188.500290	-130.183517	-89.691406
1364.415897	190.779663	-130.884857	-91.094086
1364.419236	192.766800	-132.579788	-94.074814
1364.422573	194.344833	-134.040924	-95.652832
1364.425925	195.922867	-135.677383	-98.458221
1364.429206	197.793106	-137.196960	-100.445358
1364.432554	200.890717	-139.184113	-103.016953
1364.435876	202.059616	-141.229691	-106.815903
1364.439207	203.754532	-141.989487	-108.803040
1364.442534	205.391006	-145.145523	-111.257751
1364.445880	207.787262	-146.372879	-113.770905
1364.449236	210.241974	-148.418457	-116.693176
1364.452558	212.287552	-150.580948	-120.316772
1364.455893	214.976028	-152.275864	-123.005264
1364.459258	216.904739	-155.139679	-127.154877
1364.462547	219.300995	-156.542374	-130.778503
1364.465871	220.995911	-159.113968	-134.343674
1364.469230	223.918182	-160.575104	-138.025726
1364.472537	227.600220	-162.796021	-141.415558
1364.476321	229.587372	-165.075394	-146.149612
1364.479673	232.684982	-167.705444	-152.227951
1364.483038	235.607254	-169.575699	-156.260666
1364.486399	237.711273	-172.614853	-161.520752
1364.489711	240.633545	-174.485107	-166.897736
1364.492997	243.848053	-177.348923	-172.625351
1364.496298	246.887207	-180.271179	-178.411469
1364.499628	250.277039	-182.316772	-184.139114
1364.502980	253.666870	-185.239044	-189.574509
1364.506324	257.524261	-188.395096	-196.587982
1364.509717	260.738739	-190.382233	-202.666290
1364.513074	263.485687	-192.661591	-209.387497
1364.516390	267.459961	-195.759216	-215.816483
1364.519636	270.440674	-198.739929	-224.115738
1364.522959	274.122742	-201.077744	-231.362961
1364.526291	277.278778	-204.350677	-239.662216
1364.529644	280.843964	-206.746933	-247.435440
1364.532988	284.876678	-209.902985	-255.968430
1364.536398	288.149628	-212.942139	-264.501434
1364.539691	291.597900	-215.689072	-273.852692
1364.542964	295.046173	-218.494446	-283.145508
1364.546285	298.377533	-221.650497	-292.847473
1364.549614	300.949158	-225.215668	-301.906494
1364.553008	304.338989	-228.547043	-312.251312
1364.556344	307.904144	-231.060211	-323.122131
1364.559691	310.066650	-233.982452	-333.583862
1364.563040	313.924011	-236.554062	-344.688477
1364.566364	316.320282	-240.528366	-355.851562
1364.570046	319.710114	-243.684402	-366.839264
1364.573398	320.703674	-247.132675	-377.943878
1364.576794	324.444183	-250.171844	-390.451172
1364.580153	327.074219	-253.970779	-404.419617
1364.583467	327.950928	-257.828156	-416.576294
1364.586804	330.288727	-261.276428	-428.732910
1364.590155	332.860321	-263.263580	-443.928650
1364.593464	334.789032	-265.776733	-458.306244
1364.596823	336.016388	-270.978363	-473.385132
1364.600172	336.951508	-272.907074	-488.347168
1364.603482	337.652832	-276.355347	-503.718262
1364.606840	338.880188	-279.511383	-520.550537
1364.610136	340.107544	-282.433655	-536.038574
1364.613466	340.808868	-284.713043	-552.929260
1364.616856	339.990662	-286.817047	-570.404419
1364.620144	340.224426	-289.037964	-587.879578
1364.623480	339.932220	-290.615997	-605.939209
1364.626792	338.412628	-292.895355	-625.284607
1364.630096	337.535950	-294.824066	-643.461121
1364.633486	335.665680	-295.583862	-663.741699
1364.636867	334.438324	-296.635864	-682.035034
1364.640165	332.217407	-297.687897	-702.140259
1364.643564	329.002899	-298.564575	-721.602600
1364.646860	325.729980	-298.798340	-742.350647
1364.650207	322.807739	-298.038544	-762.163635
1364.653557	318.132111	-298.564575	-782.794861
1364.656932	312.521332	-296.752747	-802.724731
1364.660285	305.741669	-295.817627	-823.881897
1364.663604	299.663361	-294.473389	-842.701355
1364.666893	293.234344	-293.012268	-862.105164
1364.670234	285.285797	-290.908203	-882.210449
1364.673610	276.518982	-288.161285	-900.562256
1364.676969	268.453522	-285.005219	-918.680298
1364.680692	257.641144	-281.732300	-937.032104
1364.684018	247.822327	-278.868469	-953.922852
1364.687378	237.477509	-275.770874	-971.631836
1364.690743	226.080658	-271.387482	-988.405579
1364.694098	214.216248	-268.172974	-1004.536499
1364.697399	201.592041	-263.205109	-1017.862061
1364.700699	188.441849	-258.178833	-1032.940918
1364.704082	175.174759	-253.035660	-1047.143188
1364.707409	160.680298	-246.489777	-1058.949219
1364.710703	144.900055	-241.229691	-1070.638184
1364.714053	129.879608	-234.566910	-1081.509033
1364.717345	114.566917	-229.014603	-1091.912354
1364.720737	97.676216	-222.118057	-1101.029785
1364.724046	81.545296	-213.292801	-1107.400269
1364.727358	64.654594	-206.220932	-1114.764526
1364.730717	46.828754	-197.746338	-1121.310303
1364.734104	28.886032	-189.447113	-1124.758667
1364.737438	11.586207	-180.329636	-1129.317383
1364.740783	-6.531853	-170.452377	-1131.304443
1364.744137	-25.526592	-160.107544	-1132.882446
1364.747449	-43.527763	-150.639389	-1131.830444
1364.750780	-61.879601	-139.300995	-1129.960205
1364.754080	-80.289886	-128.605499	-1128.674438
1364.757494	-99.459961	-117.559326	-1124.349487
1364.760830	-117.227356	-105.402687	-1118.914062
1364.764149	-134.994736	-93.362946	-1113.712402
1364.767417	-153.229691	-81.556984	-1105.120972
1364.770751	-170.471069	-69.108124	-1096.471069
1364.774138	-187.653992	-57.126827	-1087.295166
1364.777480	-204.018707	-44.911751	-1076.190552
1364.780786	-220.324966	-32.521332	-1064.501465
1364.784132	-235.520737	-20.832260	-1051.818848
1364.787857	-250.307434	-9.376972	-1037.558105
1364.791210	-265.094116	2.545880	-1023.355957
1364.794579	-278.770325	14.819404	-1008.452271
1364.797921	-292.271179	26.333138	-991.561646
1364.801272	-304.486267	37.613091	-975.664490
1364.804618	-316.233765	48.016365	-958.481567
1364.808001	-328.273529	57.659843	-939.369934
1364.811311	-338.618347	67.946228	-922.596191
1364.814663	-348.437195	76.070137	-904.887207
1364.818019	-358.197540	84.953827	-886.126221
1364.821326	-366.789032	93.369957	-867.482178
1364.824649	-375.263580	101.260086	-848.429016
1364.828072	-382.101685	108.565750	-830.018677
1364.831398	-388.121582	114.585625	-811.316223
1364.834754	-394.608978	121.189949	-791.094116
1364.838096	-400.862671	127.151367	-772.917542
1364.841404	-405.479828	132.879028	-754.624146
1364.844743	-410.038574	138.606659	-736.389221
1364.848089	-413.194611	143.574524	-716.926941
1364.851420	-416.000000	147.782593	-698.107544
1364.854856	-419.389832	151.523087	-680.398621
1364.858180	-421.669220	155.146698	-661.929810
1364.861505	-422.779663	158.361191	-644.688477
1364.864899	-424.416138	161.283463	-625.167725
1364.868226	-425.818848	164.614838	-608.101685
1364.871515	-426.578583	167.303329	-590.743408
1364.874888	-424.883728	169.641144	-573.209778
1364.878199	-425.292786	171.511398	-555.442444
1364.881519	-423.656342	173.673874	-537.558105
1364.884827	-422.779663	175.544128	-521.953247
1364.888126	-421.318542	176.420807	-505.179382
1364.891430	-418.980713	178.232605	-489.399170
1364.894751	-416.526001	179.109299	-473.268250
1364.898202	-413.545288	179.752197	-458.306244
1364.901523	-411.207489	180.979553	-441.240204
1364.904847	-407.700775	181.154877	-426.161285
1364.908241	-405.070740	181.739334	-411.783722
1364.911583	-400.570435	182.090012	-397.932190
1364.914874	-396.771484	182.148453	-384.431305
1364.918222	-392.972534	181.563995	-370.930420
1364.921542	-388.238434	181.680893	-357.429565
1364.924886	-385.023956	181.505554	-344.805389
1364.928265	-380.465210	180.804199	-333.174744
1364.931604	-375.731140	179.343079	-321.018127
1364.934951	-370.587952	178.583282	-309.679718
1364.938296	-366.438324	177.940384	-299.159546
1364.941606	-361.295135	176.303909	-289.282288
1364.944980	-357.496216	175.485687	-277.768555
1364.948732	-351.417877	173.966095	-268.534180
1364.952104	-348.144958	172.972534	-258.247803
1364.955404	-342.943298	171.219162	-249.247238
1364.958731	-337.624786	168.881363	-240.655777
1364.962070	-333.475159	167.770889	-232.765640
1364.965403	-329.091766	165.959076	-224.057266
1364.968731	-324.416138	164.790176	-216.576279
1364.972062	-319.331360	163.036819	-209.855057
1364.975402	-315.532440	161.108124	-203.952087
1364.978728	-311.265930	159.120972	-196.529510
1364.982066	-306.064301	156.958511	-190.334305
1364.985407	-302.849792	155.263596	-183.671524
1364.988727	-298.583282	152.867325	-177.534775
1364.992059	-294.550568	150.763290	-172.216263
1364.995395	-290.985382	149.477493	-166.021042
1364.998731	-287.244873	147.081238	-160.644073
1365.002058	-282.043243	145.444778	-155.617767
1365.005392	-278.536530	142.873184	-150.182358
1365.008725	-275.029816	141.295151	-144.922272
1365.012063	-269.769745	139.834015	-139.720642
1365.015392	-266.496796	137.905319	-134.986557
1365.018728	-263.340729	136.327286	-130.720047
1365.022056	-258.957336	134.457031	-126.161316
1365.025424	-254.632370	132.762131	-121.777908
1365.028753	-250.950333	131.125656	-117.452957
1365.032486	-248.495621	129.722961	-113.361786
1365.035814	-244.112213	128.028061	-109.621277
1365.039151	-240.547058	125.631798	-105.647003
1365.042492	-237.391006	124.521339	-101.497375
1365.045814	-233.182922	122.826416	-98.165985
1365.049150	-229.851547	121.306839	-94.893051
1365.052486	-226.753937	120.371712	-91.795441
1365.055837	-223.773239	118.793686	-88.288712
1365.059181	-220.383392	117.566330	-84.723557
1365.062515	-216.116898	116.105194	-81.684387
1365.065819	-214.305084	114.702507	-78.820572
1365.069147	-210.272354	113.066040	-75.722977
1365.072507	-207.876083	112.189362	-73.151382
1365.075810	-205.830505	110.903557	-71.398010
1365.079147	-202.440689	110.026886	-68.592636
1365.082469	-200.219757	109.033310	-66.780838
1365.085813	-197.414383	106.929276	-65.144363
1365.089183	-194.550552	106.753944	-63.566334
1365.092503	-192.446518	105.818817	-61.228527
1365.095829	-190.926941	104.007011	-59.650494
1365.099205	-188.004669	103.597893	-57.195789
1365.102477	-185.900650	102.545883	-56.377560
1365.105816	-184.088837	101.786087	-54.156635
1365.109145	-182.686157	100.324959	-52.870838
1365.112895	-180.523666	99.506721	-52.052601
1365.115836	-178.828751	98.688484	-50.182354
1365.119584	-177.192291	97.694916	-48.545879
1365.122919	-174.679138	96.642899	-47.669201
1365.126306	-173.627121	95.473991	-46.149624
1365.129658	-172.399765	94.480415	-45.798946
1365.132891	-170.237289	93.954414	-44.104031
1365.136230	-169.009933	92.902397	-42.993572
1365.139575	-168.425476	92.142601	-41.590885
1365.142909	-166.029221	91.558151	-41.181767
1365.146254	-164.392746	90.798363	-40.071308
1365.149660	-162.580948	89.863235	-38.668621
1365.152957	-162.113388	89.161896	-38.142605
1365.156290	-160.067795	88.285210	-36.915249
1365.159601	-158.431335	88.285210	-35.337231
1365.162891	-157.437759	87.583870	-34.752781
1365.166223	-156.035065	86.414963	-33.174747
1365.169580	-154.690811	85.655167	-33.408535
1365.172933	-153.638809	85.655167	-32.181187
1365.176354	-152.762131	84.778496	-31.772060
1365.179632	-151.125656	84.077148	-30.077152
1365.182909	-150.015198	83.434250	-29.492699
1365.186221	-148.729401	83.434250	-28.732906
1365.189555	-148.028061	82.791351	-28.791348
1365.192937	-147.092926	82.616013	-27.388660
1365.196277	-146.040909	82.206894	-27.680889
1365.199619	-144.988892	81.622444	-26.804207
1365.202989	-144.170654	81.213326	-25.635300
1365.206333	-143.527756	81.037994	-25.459969
1365.209978	-141.949738	80.511978	-24.466393
1365.213361	-140.897720	80.453537	-24.232613
1365.216756	-140.839264	79.869087	-23.998829
1365.220120	-139.787262	80.044418	-23.180595
1365.223406	-139.611923	79.518410	-22.946815
1365.226739	-139.085922	79.459961	-23.589718
1365.230080	-139.261246	79.109291	-23.239044
1365.233423	-138.150787	78.992401	-22.128578
1365.236807	-137.917007	78.758621	-21.485683
1365.240202	-137.800110	78.758621	-21.719467
1365.243510	-137.624786	78.291054	-21.135014
1365.246861	-137.683228	77.881935	-21.427235
1365.250146	-137.098770	78.291054	-22.128578
1365.253463	-137.157227	78.174164	-21.076565
1365.256933	-136.923447	77.765045	-21.251904
1365.260211	-137.683228	78.349503	-20.492111
1365.263505	-136.748108	78.466393	-20.141438
1365.266835	-136.163651	78.291054	-21.427235
1365.270139	-136.806549	77.998825	-20.550560
1365.273513	-137.157227	77.881935	-20.725891
1365.276811	-136.806549	78.115715	-21.485683
1365.280185	-136.514328	77.648155	-21.602573
1365.283505	-135.929871	77.765045	-22.011688
1365.286829	-136.689651	77.940384	-21.777908
1365.290203	-137.098770	78.174164	-22.713032
1365.293530	-136.923447	78.291054	-22.070137
1365.296849	-137.098770	77.998825	-21.953247
1365.300197	-137.332550	78.583290	-22.829926
1365.303492	-137.624786	78.291054	-22.537701
1365.306814	-137.098770	78.115715	-21.602573
1365.310587	-137.157227	78.933960	-21.485683
1365.313892	-138.209244	79.050850	-22.011688
1365.317258	-137.800110	79.518410	-22.420811
1365.320573	-138.559906	79.284630	-22.654591
1365.323958	-138.033890	79.927528	-21.719467
1365.327273	-138.676804	80.278198	-23.063705
1365.330617	-138.618347	80.161308	-23.063705
1365.333986	-138.852142	80.687317	-23.355934
1365.337355	-139.845703	80.745758	-23.940388
1365.340663	-140.021042	81.330215	-24.349503
1365.343977	-140.371704	81.739334	-24.291061
1365.347283	-141.014618	82.382233	-25.226185
1365.350705	-141.189941	82.966682	-26.044422
1365.354032	-142.300400	83.258911	-26.044422
1365.357429	-143.352432	84.194038	-26.395092
1365.360777	-143.644653	84.603149	-26.745766
1365.364128	-144.345993	84.836937	-27.622440
1365.367393	-145.281113	85.772057	-27.622440
1365.370755	-146.508469	85.830505	-28.674458
1365.374090	-148.086502	86.356514	-28.148453
1365.377459	-148.787842	87.291641	-30.544712
1365.380754	-149.489197	88.109879	-30.836941
1365.384090	-151.125656	88.518997	-31.538280
1365.387453	-151.710114	89.161896	-31.947399
1365.390774	-153.405029	90.155464	-33.700764
1365.394101	-154.340149	90.798363	-35.045002
1365.397532	-155.509064	91.733490	-36.330799
1365.400880	-156.794861	92.434837	-36.564579
1365.404216	-159.074219	93.369957	-37.265926
1365.407585	-160.184692	94.071304	-38.960842
1365.410870	-161.645828	95.240211	-38.960842
1365.414232	-162.756287	95.941551	-40.831097
1365.417589	-165.035660	96.993568	-42.058445
1365.420895	-166.146118	97.753365	-43.928699
1365.424272	-168.074814	98.630043	-44.454700
1365.427587	-169.302155	99.448273	-45.214497
1365.430905	-170.821747	99.915840	-46.792515
1365.434285	-172.399765	101.552307	-48.312099
1365.437630	-174.679138	102.078316	-49.364117
1365.440990	-176.374039	103.364113	-50.766804
1365.444286	-178.068970	104.591461	-52.169491
1365.447640	-179.588547	105.409698	-53.513737
1365.450984	-180.815887	106.870842	-54.741085
1365.454317	-182.744583	107.689072	-55.734653
1365.457633	-184.907074	109.150208	-57.546467
1365.460983	-186.660431	110.552895	-60.059620
1365.464323	-188.413788	112.540031	-61.520748
1365.467646	-191.394501	113.358269	-63.274105
1365.471390	-193.673874	115.286972	-65.495026
1365.474723	-195.661011	117.040321	-67.365280
1365.478083	-197.940384	118.443008	-70.696671
1365.481390	-199.693741	119.962593	-72.040909
1365.484780	-202.206894	121.073051	-74.320282
1365.488093	-204.895386	123.118637	-77.593216
1365.491420	-206.765625	124.988899	-79.463470
1365.494712	-209.571014	127.560493	-82.502625
1365.498083	-212.259491	128.378723	-86.535370
1365.501417	-215.766205	130.950317	-89.223846
1365.504728	-218.279373	132.586792	-91.620102
1365.508042	-221.084747	134.340149	-96.237305
1365.511403	-224.299225	136.619522	-98.984222
1365.514726	-227.046173	138.548218	-102.841629
1365.518070	-230.494446	141.061371	-106.815903
1365.521458	-234.293411	142.347168	-110.322632
1365.524785	-237.040314	144.743423	-114.004684
1365.528129	-240.663956	146.438339	-118.680313
1365.531400	-244.638214	148.308578	-123.005264
1365.534749	-247.852722	150.763290	-128.148453
1365.538044	-250.541199	152.516663	-131.888962
1365.541404	-255.041489	154.971359	-137.675049
1365.544752	-258.898895	156.958511	-143.168915
1365.548053	-261.528931	159.062546	-149.247223
1365.551806	-265.269440	161.108124	-155.033325
1365.555339	-268.834595	163.095276	-159.942734
1365.558671	-272.925781	165.725296	-164.384583
1365.562010	-276.432495	168.238464	-171.047333
1365.565337	-280.056122	170.400940	-177.768570
1365.568672	-283.796600	173.264755	-183.437759
1365.572020	-288.121582	175.193451	-188.990082
1365.575339	-291.920502	177.472824	-195.652847
1365.578671	-294.667450	180.278198	-201.906494
1365.581998	-298.992401	182.616013	-208.686142
1365.585335	-302.908234	185.479828	-215.465820
1365.588671	-305.479828	187.350082	-223.414383
1365.591999	-309.687897	190.213913	-230.194046
1365.595337	-314.772644	192.843948	-239.253067
1365.598667	-316.993561	196.000000	-247.260086
1365.602053	-321.026306	198.746933	-255.383987
1365.605331	-324.357697	201.084747	-265.144348
1365.608699	-328.916412	204.065445	-273.268250
1365.612001	-332.832245	206.578598	-283.846863
1365.615339	-335.403870	209.734665	-293.490356
1365.618665	-339.436584	211.838684	-303.718262
1365.621998	-341.774414	213.942734	-314.296875
1365.625330	-346.859131	217.332565	-326.395081
1365.628671	-349.898315	219.085922	-338.317932
1365.631998	-353.171234	221.540634	-350.416138
1365.635326	-355.918182	223.878448	-361.988312
1365.638658	-360.418488	225.748688	-375.547638
1365.641994	-363.516052	228.028046	-389.399200
1365.645326	-366.379883	229.255402	-402.841614
1365.648670	-368.893036	231.300980	-417.336029
1365.652000	-371.230865	232.879028	-431.888947
1365.655326	-373.802460	234.690826	-447.961426
1365.658663	-376.666260	235.509048	-464.033875
1365.661993	-378.770325	236.794861	-479.872620
1365.665328	-379.120972	237.262421	-495.477478
1365.669129	-381.984802	237.963760	-512.485046
1365.672422	-382.744598	237.145523	-529.843384
1365.675748	-382.452362	238.255981	-546.208069
1365.679082	-382.569244	237.087097	-564.092346
1365.682451	-382.803040	236.853302	-580.807739
1365.685746	-382.218597	235.450607	-599.276428
1365.689081	-381.166565	234.457047	-617.043823
1365.692420	-380.406769	233.288132	-635.161865
1365.695747	-378.244293	231.242554	-653.689026
1365.699104	-377.133850	228.670944	-670.930420
1365.702461	-374.386902	226.976044	-689.457581
1365.705777	-370.412628	224.346008	-708.686157
1365.709086	-366.847473	221.306839	-726.570435
1365.712447	-362.464050	218.676788	-744.688477
1365.715751	-357.262421	215.812973	-762.631226
1365.719086	-353.755707	211.371124	-781.918152
1365.722415	-347.209839	207.455292	-800.211548
1365.725760	-340.956146	203.364105	-818.563354
1365.729074	-333.825836	198.746933	-837.441223
1365.732433	-325.701904	192.902390	-854.215027
1365.735769	-317.344238	187.992996	-874.495605
1365.739106	-308.402100	181.096436	-890.743408
1365.742483	-298.875519	175.076569	-909.796631
1365.745755	-288.822906	168.472244	-926.395142
1365.749515	-276.432495	161.809464	-943.168945
1365.752835	-265.386353	153.685562	-960.527100
1365.756208	-253.638809	145.678558	-976.950378
1365.759530	-240.897720	137.320862	-992.321533
1365.762922	-227.689072	129.080078	-1008.160156
1365.766243	-212.785492	119.144356	-1024.583252
