time (s)	magX	magY	magZ
7281.753355	-75.484512	-356.500885	-414.488007
7281.756768	-76.478088	-357.552887	-422.611938
7281.760055	-77.413208	-358.312683	-429.683807
7281.763485	-78.056107	-358.780243	-437.281677
7281.766789	-79.458794	-358.897125	-445.113342
7281.770095	-80.686150	-359.598511	-453.061920
7281.773358	-81.504387	-361.118042	-461.945648
7281.776705	-82.439514	-361.059631	-469.777313
7281.780016	-83.725304	-361.293427	-479.596100
7281.783380	-85.244888	-361.760986	-487.661591
7281.786717	-86.004669	-361.760986	-496.136139
7281.790148	-87.173592	-361.702515	-504.143158
7281.793441	-88.050270	-361.234955	-512.793152
7281.796689	-88.810059	-360.884277	-522.495056
7281.800024	-90.563416	-360.475159	-530.794312
7281.803351	-91.615433	-359.247803	-540.963806
7281.806752	-92.608994	-359.072479	-550.022827
7281.810048	-93.719467	-358.312683	-559.315674
7281.812954	-94.713028	-356.851562	-568.257751
7281.816290	-95.765053	-355.624207	-577.842834
7281.819641	-97.050858	-354.396851	-586.492676
7281.822927	-97.401520	-353.461731	-595.025757
7281.826260	-98.570419	-352.000610	-605.253662
7281.829604	-99.388672	-350.130341	-613.611389
7281.832932	-100.849792	-347.909393	-622.670349
7281.836261	-102.544708	-345.746948	-630.735840
7281.839596	-103.304504	-343.876709	-640.730042
7281.842929	-103.830521	-340.662201	-649.321472
7281.846286	-105.057861	-337.915253	-658.848083
7281.849635	-106.343658	-335.343658	-667.322632
7281.852952	-106.928116	-332.070740	-674.862122
7281.856266	-108.213913	-329.148468	-685.206909
7281.859588	-108.856812	-325.232635	-693.623047
7281.862956	-109.791931	-320.966095	-702.798950
7281.866250	-111.428406	-317.400940	-711.916443
7281.869588	-111.954407	-313.017548	-720.390991
7281.872923	-113.064865	-308.400360	-728.807190
7281.876253	-113.824661	-304.484497	-737.632385
7281.879606	-114.701355	-298.756866	-746.340759
7281.882948	-115.227356	-293.789001	-754.406189
7281.886291	-116.279373	-288.528931	-762.062561
7281.889605	-117.272949	-282.041504	-771.063171
7281.892532	-117.857391	-275.787842	-779.946838
7281.895832	-118.383408	-269.709534	-787.427795
7281.899164	-118.558731	-262.929871	-794.967285
7281.902498	-119.435410	-255.799530	-801.746948
7281.905857	-120.136765	-248.786102	-810.104675
7281.909159	-120.779663	-241.305084	-817.118103
7281.912491	-121.013443	-233.356537	-824.073059
7281.915825	-121.188782	-225.407959	-830.034485
7281.919164	-121.130325	-216.407379	-836.814148
7281.922497	-121.714798	-208.049683	-842.366516
7281.925822	-121.890121	-199.516663	-847.275818
7281.929165	-122.357681	-190.632965	-852.360657
7281.932490	-122.708359	-180.521912	-857.679199
7281.935844	-122.708359	-171.988892	-862.413208
7281.939155	-122.942154	-162.111649	-866.971985
7281.942493	-122.708359	-153.052612	-871.004700
7281.945820	-122.766800	-143.409119	-874.394531
7281.949160	-122.766800	-133.064301	-876.673889
7281.952508	-121.656342	-123.128578	-879.537659
7281.955823	-121.656342	-112.783745	-882.927551
7281.959158	-121.656342	-102.848030	-883.161377
7281.962486	-120.955002	-92.269424	-886.142090
7281.965823	-120.545883	-81.807716	-886.258911
7281.969157	-120.428986	-71.813553	-887.895386
7281.972487	-120.078323	-60.767387	-888.129150
7281.975816	-119.318527	-50.948570	-888.012329
7281.979191	-118.909409	-40.603737	-887.778503
7281.982489	-118.032730	-29.966684	-887.427795
7281.985820	-118.324951	-19.563414	-886.551208
7281.989153	-117.798950	-9.101694	-885.031616
7281.992495	-116.396255	1.944477	-882.810730
7281.995818	-116.104034	12.406195	-880.706604
7281.999151	-116.162476	22.867914	-877.901306
7282.002480	-115.227356	34.323204	-875.388062
7282.005814	-114.409119	45.018703	-872.816467
7282.009148	-113.649323	55.655754	-869.485107
7282.012481	-112.714203	65.942139	-866.153748
7282.015816	-111.837524	76.520744	-861.302795
7282.019154	-110.843948	86.573349	-857.386902
7282.022504	-109.908829	97.561081	-852.302185
7282.025841	-108.798370	107.847458	-847.743408
7282.029145	-108.097031	118.952080	-842.892456
7282.032479	-107.103455	129.004669	-837.281738
7282.035827	-105.759216	138.414368	-832.021606
7282.039148	-104.239624	148.876099	-825.709534
7282.042484	-103.421387	159.396255	-819.280518
7282.045817	-101.784912	168.221512	-812.676270
7282.049160	-101.083572	178.098770	-806.013489
7282.052481	-99.388672	187.742249	-799.935181
7282.055814	-98.278198	197.327286	-791.051514
7282.059148	-96.700180	205.684967	-783.570496
7282.062475	-94.946808	213.925766	-776.849182
7282.065809	-93.894798	222.984802	-769.192871
7282.069141	-92.141434	231.167145	-761.478149
7282.072473	-90.621864	238.940384	-752.068420
7282.075813	-88.868492	246.304489	-743.885986
7282.079149	-87.290474	253.902390	-735.411438
7282.082471	-85.595558	261.091156	-727.755127
7282.085807	-84.485100	268.805969	-719.864990
7282.089141	-82.965515	274.299805	-711.857971
7282.092479	-81.679726	280.202789	-702.857422
7282.095833	-80.160141	286.573334	-695.142639
7282.099144	-78.640564	292.651642	-686.434265
7282.102474	-77.354759	297.853302	-678.193481
7282.105811	-76.068970	302.879608	-669.368225
7282.109174	-74.257156	308.256592	-661.010559
7282.112478	-73.088249	313.399780	-652.769775
7282.115808	-71.744011	318.192291	-643.769165
7282.119137	-70.049095	321.699005	-636.931030
7282.122474	-69.230865	326.783752	-627.813599
7282.125803	-68.646400	329.647552	-620.566406
7282.129136	-66.542374	333.738770	-612.442444
7282.132470	-65.198135	337.303894	-604.026306
7282.135804	-63.970779	341.102875	-594.967285
7282.139140	-62.334305	343.089996	-586.434265
7282.142472	-61.340736	345.778473	-578.777954
7282.145822	-60.814728	348.992981	-570.946228
7282.149138	-59.528931	351.330811	-562.822327
7282.152472	-58.360023	354.253052	-554.406250
7282.155799	-56.957336	356.181763	-546.165405
7282.159141	-56.022209	357.759796	-538.567505
7282.162544	-54.911751	360.156036	-529.450073
7282.165798	-54.268852	362.376984	-521.735229
7282.169140	-52.690826	363.896545	-513.962036
7282.172470	-51.521919	365.123901	-505.779633
7282.175804	-50.411461	366.351257	-496.954437
7282.179130	-49.476326	367.578613	-490.466949
7282.182465	-48.307419	368.104614	-482.459930
7282.185804	-47.606079	369.098175	-476.206268
7282.189166	-45.677383	370.208649	-466.562836
7282.192465	-45.151375	370.383972	-460.426056
7282.195799	-44.333138	370.910004	-452.302155
7282.199130	-42.872009	370.968445	-446.048492
7282.202461	-42.053772	371.552887	-437.749268
7282.205800	-40.943306	370.734650	-431.086487
7282.209133	-39.657509	370.617767	-424.306854
7282.212462	-38.663940	370.559296	-417.994720
7282.215797	-38.196373	370.325531	-410.864380
7282.219134	-37.319702	370.793091	-404.610748
7282.222465	-35.332558	370.091736	-398.590881
7282.225797	-35.215668	369.857971	-392.220337
7282.229152	-33.812981	369.507324	-385.557526
7282.232478	-32.468735	368.805969	-380.063690
7282.235797	-32.351845	368.513733	-375.037415
7282.239126	-31.475157	367.695496	-368.491547
7282.242465	-31.066042	366.760376	-363.698975
7282.245798	-29.955580	365.240784	-358.964905
7282.249128	-28.611338	364.890106	-353.120392
7282.252462	-28.026884	363.779663	-348.912323
7282.255790	-27.617765	362.727631	-343.009369
7282.259125	-27.383986	361.383392	-339.385742
7282.262460	-26.565748	361.324951	-334.651672
7282.265793	-25.805964	359.746918	-329.625336
7282.269123	-25.104620	358.402679	-325.475739
7282.272460	-24.637056	357.935120	-319.864990
7282.275810	-24.637056	356.298645	-316.767395
7282.279127	-23.994154	355.071289	-312.793091
7282.282461	-22.766798	354.077728	-308.351227
7282.285790	-21.948565	352.558167	-304.493866
7282.289120	-21.539450	351.739899	-300.694885
7282.292453	-21.013441	350.804779	-295.142609
7282.295797	-20.428988	349.752777	-291.928101
7282.299122	-19.610750	347.999390	-287.778473
7282.302450	-19.435419	347.005829	-284.213318
7282.305786	-19.201635	345.310913	-279.946808
7282.310412	-18.266512	342.388641	-273.751587
7282.313832	-17.389830	341.745758	-270.127991
7282.317163	-17.331385	340.050842	-266.621246
7282.320092	-16.571592	338.648163	-263.231415
7282.323382	-16.513147	338.180603	-259.607819
7282.326715	-16.513147	336.427246	-256.802460
7282.330391	-15.636469	335.433655	-253.821762
7282.333306	-15.578024	333.563385	-250.022781
7282.336652	-14.759790	331.985382	-246.691422
7282.339993	-14.467562	330.874908	-243.418472
7282.343412	-14.642897	329.764465	-240.788437
7282.346705	-13.883108	328.712433	-238.275284
7282.350043	-12.889540	327.543549	-235.469894
7282.353290	-12.129747	326.783752	-232.956772
7282.356633	-11.837523	325.088837	-231.028061
7282.359967	-11.545294	323.919922	-228.164230
7282.363365	-11.019289	323.218567	-226.352432
7282.366658	-11.136179	322.575684	-224.599075
7282.370070	-10.610170	321.757446	-222.904160
7282.373376	-10.317942	319.711853	-220.332565
7282.376656	-9.908827	319.302734	-218.579208
7282.379966	-9.850382	318.776733	-216.299850
7282.383304	-9.733488	317.374023	-215.423141
7282.386677	-9.032145	315.796021	-213.494461
7282.389981	-9.090590	315.562256	-213.435989
7282.393395	-8.447691	314.334900	-212.033310
7282.396741	-8.213907	313.633545	-209.637070
7282.400053	-7.629454	312.990631	-208.585037
7282.403298	-7.512564	311.880188	-207.649918
7282.406630	-7.687899	311.704834	-205.955002
7282.409961	-7.395674	310.535919	-204.610764
7282.412895	-6.869665	310.009918	-204.084763
7282.416198	-6.226767	309.483917	-202.857407
7282.419556	-6.343657	308.431915	-202.039169
7282.422886	-6.226767	307.847443	-201.045609
7282.426230	-6.343657	307.555206	-199.642899
7282.429586	-7.103445	307.204559	-198.941574
7282.432868	-6.402102	306.912323	-198.298660
7282.436207	-5.876097	306.503204	-196.837509
7282.439532	-5.466978	305.509644	-196.662186
7282.442868	-5.525423	305.217407	-195.201065
7282.446203	-5.583868	304.574524	-195.493301
7282.449538	-5.466978	304.866730	-194.207504
7282.452863	-4.824080	303.931610	-193.681473
7282.456228	-4.707190	303.639374	-192.571014
7282.459564	-4.707190	303.054932	-192.045013
7282.462884	-4.590296	302.470459	-191.928116
7282.466192	-4.122736	302.528931	-192.103455
7282.469534	-4.005842	301.710693	-191.109894
7282.472859	-3.947397	301.769135	-190.934540
7282.476187	-3.479837	301.418457	-189.414978
7282.479533	-3.888952	301.535339	-190.174759
7282.482862	-3.187609	301.827576	-190.174759
7282.486209	-3.246054	301.710693	-189.473404
7282.489576	-2.544710	301.535339	-189.005844
7282.492472	-2.486265	301.827576	-189.064285
7282.495770	-2.603155	301.418457	-189.356522
7282.499104	-2.544710	301.476898	-188.772079
7282.502493	-2.310930	301.652252	-189.824081
7282.505769	-1.609587	301.652252	-190.057877
7282.509100	-1.843367	301.593811	-190.174759
7282.512438	-1.142023	302.645813	-189.765640
7282.515763	-1.492693	302.821167	-191.577454
7282.519102	-1.375803	302.879608	-191.109894
7282.522428	-1.200468	302.470459	-192.220352
7282.525762	-0.849794	303.113373	-192.571014
7282.529096	-0.791349	303.639374	-193.155472
7282.532430	-0.908243	304.457611	-193.973709
7282.535794	-0.674459	304.691406	-194.382828
7282.539100	-0.148453	305.392731	-195.610184
7282.542436	-0.148453	305.334290	-196.486862
7282.545766	0.319113	306.386322	-197.948013
7282.549100	0.143778	307.146118	-199.292221
7282.552427	0.377560	307.321442	-200.519577
7282.555760	-0.090006	308.665680	-201.922256
7282.559096	0.260668	309.016357	-202.740494
7282.562430	1.020458	309.191711	-203.734085
7282.565758	0.786676	309.717712	-206.071884
7282.569140	0.903566	311.003479	-205.896561
7282.572426	1.078903	311.061951	-208.059036
7282.575762	1.371130	311.880188	-208.526596
7282.579127	1.254238	312.698425	-210.747513
7282.582426	1.429575	312.756866	-211.799545
7282.585762	1.897139	314.919342	-213.494461
7282.589096	2.130919	315.328461	-215.481583
7282.592427	1.780247	316.205139	-216.650497
7282.595755	1.721802	317.315613	-218.286972
7282.599092	2.423145	317.958496	-219.631210
7282.602421	2.130919	318.542969	-221.969040
7282.605758	2.364700	319.478088	-224.073074
7282.609092	2.306255	320.588531	-224.832840
7282.612419	2.189363	321.465240	-227.170639
7282.615752	2.598482	321.991241	-229.333145
7282.619094	2.189363	323.686157	-231.612503
7282.622434	2.949154	324.855042	-232.781418
7282.625754	2.598482	325.030396	-235.060776
7282.629094	3.007599	326.725281	-238.158401
7282.632420	3.416716	327.835785	-239.736404
7282.635760	3.299826	329.413788	-242.366440
7282.639089	3.592052	330.524261	-245.113388
7282.642422	3.708942	331.634705	-248.094101
7282.645755	4.527178	332.569824	-250.139694
7282.649089	4.527178	333.680298	-253.997086
7282.652416	4.527178	334.849213	-256.977783
7282.655755	5.111631	336.310333	-260.250702
7282.659087	5.053186	336.602570	-263.231415
7282.662419	5.637640	338.881958	-266.855042
7282.665776	4.877850	339.933929	-271.121552
7282.669085	5.520748	341.453522	-273.751587
7282.672421	5.403858	342.680878	-277.433655
7282.675755	5.520748	343.382233	-280.998840
7282.679082	5.228521	344.784912	-286.551117
7282.682413	5.871420	346.596710	-289.414948
7282.685746	6.105202	348.233185	-293.856781
7282.689083	6.163647	349.226746	-297.947998
7282.692417	6.338984	350.512543	-301.571594
7282.695748	6.397429	351.564575	-305.954987
7282.699097	7.391001	353.084167	-310.689087
7282.702411	6.514318	354.428406	-314.955566
7282.705747	6.864992	355.597290	-319.514313
7282.709103	6.514318	355.947968	-324.248383
7282.712414	6.280539	357.642883	-329.099335
7282.715746	6.105202	358.578003	-333.716553
7282.719078	7.098774	360.039154	-338.509064
7282.722410	6.689655	360.740479	-343.593811
7282.725744	6.689655	361.500275	-348.094116
7282.729082	6.923437	362.727631	-353.763275
7282.732414	7.215664	363.662781	-358.672699
7282.735746	7.624783	364.714783	-363.815918
7282.739080	6.981884	365.299225	-369.075958
7282.742414	6.981884	366.234344	-374.511353
7282.745745	7.624783	367.169495	-379.596130
7282.749071	7.741673	368.046173	-385.674469
7282.752422	7.917009	368.455292	-392.161865
7282.755739	7.858562	369.565735	-397.772614
7282.759081	7.917009	369.624176	-402.857391
7282.762408	7.683228	370.559296	-409.344788
7282.765778	7.683228	370.442444	-415.072479
7282.769075	8.501461	370.851532	-423.430145
7282.772413	9.085915	371.260651	-429.859131
7282.775737	8.910580	370.851532	-435.820557
7282.779077	9.085915	371.552887	-442.249573
7282.782409	10.021040	371.319092	-449.555206
7282.785740	9.787260	371.319092	-456.919342
7282.789077	9.728813	370.676208	-463.815887
7282.792406	9.553478	370.617767	-470.128021
7282.795755	10.430159	370.091736	-478.193451
7282.799073	10.196377	369.916412	-486.492645
7282.802403	10.254822	368.922852	-494.207428
7282.805739	10.722385	367.461700	-501.805389
7282.809070	10.897720	366.526581	-509.286407
7282.812400	10.313267	365.533020	-517.936340
7282.815734	10.722385	364.422546	-525.884888
7282.819069	11.073057	362.727631	-534.125671
7282.822404	11.131502	360.798950	-542.307983
7282.825735	11.248392	358.052002	-550.665710
7282.829095	11.248392	356.473999	-559.257202
7282.832402	11.248392	354.311523	-566.913513
7282.835738	11.482176	352.382812	-576.323242
7282.839107	11.248392	348.817627	-585.090027
7282.842402	11.189947	346.129150	-592.804810
7282.845737	10.839275	343.265350	-602.039185
7282.849064	10.780830	340.635284	-610.513733
7282.852401	10.079487	337.187012	-619.105225
7282.855734	10.079487	333.271179	-628.222717
7282.859069	9.261251	328.887756	-636.989502
7282.862403	9.144361	325.322601	-646.574585
7282.865728	8.910580	320.939209	-654.172424
7282.869066	9.144361	316.438904	-663.173035
7282.872399	8.735243	311.120392	-671.063171
7282.875728	8.618353	306.737000	-679.771484
7282.879066	8.793688	302.061371	-687.778503
7282.882408	9.085915	295.924591	-696.253052
7282.885730	8.618353	291.190521	-705.429016
7282.889060	8.384571	285.696686	-713.436035
7282.893731	7.858562	274.124481	-730.502014
7282.897064	8.033899	268.396851	-737.690857
7282.900426	7.800117	261.383392	-745.990112
7282.903781	7.566336	253.960846	-754.873779
7282.906682	7.858562	247.298065	-762.413208
7282.909993	7.391001	240.284637	-770.478638
7282.913331	7.624783	232.336060	-779.011719
7282.916996	7.566336	224.855057	-786.375793
7282.919921	7.566336	217.257156	-794.967285
7282.923236	7.507891	208.548798	-801.279358
7282.926611	7.683228	200.307999	-809.929260
7282.929931	7.858562	191.424301	-816.475220
7282.933327	7.391001	182.715958	-823.780823
7282.936654	6.864992	173.130920	-829.976074
7282.939913	6.689655	163.487427	-837.398621
7282.943243	6.338984	153.902390	-843.126282
7282.946578	6.631210	143.791336	-849.204529
7282.949939	5.929865	133.504959	-854.990662
7282.953262	5.871420	123.919937	-860.075378
7282.956719	4.936295	113.049095	-866.329102
7282.960007	4.468733	102.879601	-870.244873
7282.963315	3.884279	91.891876	-874.745178
7282.966577	3.942724	81.430161	-879.362427
7282.969923	2.773817	70.734657	-883.628845
7282.973240	2.773817	59.396259	-887.778503
7282.976594	1.546465	48.934540	-890.291687
7282.979926	1.078903	38.122150	-893.389221
7282.983325	0.436005	26.549971	-896.253113
7282.986211	-0.732904	15.328464	-898.181824
7282.989482	-1.317358	4.399181	-900.753418
7282.992810	-2.310930	-6.004091	-900.928711
7282.996146	-2.778494	-16.348917	-902.798950
7282.999505	-3.538282	-26.927526	-903.792603
7283.002805	-4.122736	-37.915253	-904.610718
7283.006138	-4.940969	-48.610756	-903.792603
7283.009473	-5.642313	-59.014023	-903.850952
7283.012832	-5.583868	-69.475739	-902.915894
7283.016179	-6.694330	-79.820564	-902.506775
7283.019502	-7.454119	-90.691406	-900.461121
7283.022819	-8.155462	-100.685570	-898.883179
7283.026142	-9.265928	-110.621269	-896.194641
7283.029509	-8.798361	-120.849205	-893.973755
7283.032813	-8.856806	-130.142029	-891.577454
7283.036142	-9.791937	-139.785507	-889.239624
7283.039473	-10.317942	-149.604340	-885.616028
7283.042808	-11.077734	-158.955582	-881.524841
7283.046137	-11.895967	-167.839279	-878.076538
7283.049487	-11.486849	-176.839859	-872.816467
7283.052830	-11.895967	-186.424896	-868.140930
7283.056156	-12.538866	-194.841034	-863.582153
7283.059045	-12.947985	-203.724716	-858.322083
7283.062379	-13.181765	-211.264191	-851.542419
7283.065709	-14.058443	-219.154312	-846.399231
7283.069045	-14.350672	-227.395111	-839.794861
7283.072404	-14.759790	-235.811249	-832.547668
7283.075708	-14.818235	-242.649353	-826.469360
7283.079042	-15.694914	-250.013458	-818.696106
7283.082379	-15.227350	-257.143799	-810.981262
7283.085715	-16.688486	-264.566345	-804.260071
7283.089040	-16.630041	-271.053772	-795.493347
7283.092373	-17.039156	-277.307404	-787.778503
7283.095707	-17.565165	-283.970184	-778.544128
7283.099034	-18.208063	-289.230286	-770.712463
7283.102374	-18.266512	-295.016357	-761.653442
7283.105711	-18.967855	-300.685577	-752.535950
7283.109060	-19.669199	-305.828766	-742.950928
7283.112370	-20.078314	-311.030396	-733.132080
7283.115708	-20.545877	-315.589142	-724.423767
7283.119067	-20.487432	-319.680298	-714.897156
7283.122374	-21.481001	-323.654572	-706.071899
7283.125703	-21.539450	-328.563995	-696.603760
7283.129036	-22.416128	-332.187622	-687.486267
7283.132377	-23.059031	-335.109894	-677.258362
7283.135700	-23.585039	-338.265930	-668.199341
7283.139040	-24.286383	-340.954437	-658.964905
7283.142369	-24.286383	-344.694916	-649.204590
7283.145704	-24.111044	-347.558746	-640.437744
7283.149038	-25.338400	-349.136749	-630.560486
7283.152400	-25.279951	-352.059021	-622.261230
7283.155704	-25.513735	-353.637054	-611.974854
7283.159038	-25.922853	-354.981293	-602.272949
7283.162372	-26.098188	-357.026886	-593.330811
7283.165700	-26.156633	-357.962006	-584.680908
7283.169036	-26.390417	-359.423126	-576.264771
7283.172365	-25.864405	-360.358276	-566.796631
7283.175696	-26.390417	-361.644073	-558.146729
7283.179037	-26.624197	-361.819397	-550.081238
7283.182427	-26.448858	-363.748108	-540.379333
7283.185699	-26.565748	-363.514343	-530.969604
7283.189029	-26.448858	-364.215668	-523.371765
7283.192368	-26.624197	-364.215668	-514.078918
7283.195725	-26.331968	-363.748108	-505.779633
7283.199035	-26.565748	-364.040344	-496.545319
7283.202370	-26.448858	-364.215668	-489.356476
7283.205699	-26.448858	-363.923431	-480.180573
