time (s)	magX	magY	magZ
2331.982017	181.720642	-99.908829	-72.274689
2331.985353	183.590881	-100.668610	-74.320282
2331.988685	184.993576	-102.421974	-75.781418
2331.992023	186.454712	-103.473984	-78.236115
2331.995357	187.448273	-104.701340	-80.106369
2331.998685	189.727646	-106.337814	-81.158386
2332.002022	191.422562	-107.857399	-83.320862
2332.005348	193.175919	-109.376968	-85.015778
2332.008682	194.870834	-110.136765	-87.295151
2332.012040	196.215088	-111.597900	-89.048508
2332.015346	198.260681	-113.234367	-91.386322
2332.018707	200.130920	-114.753952	-92.964355
2332.022016	202.293411	-116.624199	-95.185272
2332.025355	203.812958	-117.267097	-96.646408
2332.029101	205.391006	-118.611336	-100.270020
2332.032435	208.196381	-120.130920	-102.666275
2332.035782	209.073059	-121.533607	-105.530106
2332.039104	211.118637	-123.345413	-108.043243
2332.042431	213.398010	-124.514313	-109.504379
2332.045770	215.268265	-126.501465	-112.894226
2332.049168	218.073639	-127.787262	-116.342499
2332.052462	219.943893	-129.306839	-119.498550
2332.055806	222.983063	-130.943314	-123.122147
2332.059171	224.970184	-132.170670	-125.927521
2332.062436	227.717117	-134.274704	-129.434265
2332.065767	229.762711	-136.028046	-133.525421
2332.069104	232.392746	-138.307419	-137.324371
2332.072432	235.548798	-140.060791	-141.649338
2332.075768	237.828171	-142.106369	-146.324966
2332.079111	240.282883	-144.561081	-150.649918
2332.082434	243.088257	-145.905319	-155.442429
2332.085780	245.367630	-148.184677	-160.760956
2332.089127	248.757446	-150.873169	-165.670380
2332.092498	251.445953	-152.918762	-171.222672
2332.095873	253.608429	-155.724136	-177.125656
2332.099117	257.056702	-158.061966	-182.853302
2332.102441	259.803619	-161.334900	-188.639389
2332.105759	263.777893	-163.497360	-195.068390
2332.109096	266.291046	-166.010529	-200.971375
2332.112438	268.453522	-168.640564	-207.517258
2332.115762	271.492706	-171.855057	-212.602005
2332.119535	274.298096	-173.900635	-219.790771
2332.122932	276.635895	-178.284058	-226.219742
2332.126312	278.739929	-180.855652	-234.986557
2332.129541	281.954407	-184.187027	-241.357101
2332.132855	284.701355	-186.700180	-249.714798
2332.136212	286.746948	-190.206894	-257.371094
2332.139539	289.786072	-193.362946	-265.261230
2332.142876	293.351257	-196.285217	-273.794250
2332.146293	294.753937	-198.915253	-281.859711
2332.149596	297.734650	-201.311508	-290.568085
2332.152947	300.598480	-204.642899	-300.153107
2332.156195	302.644073	-207.506714	-309.036804
2332.159534	305.507874	-211.305679	-317.803619
2332.162843	307.436584	-213.292801	-327.739319
2332.166216	310.008179	-216.507309	-337.675049
2332.169537	312.345978	-219.254242	-347.610748
2332.172929	314.742249	-222.877853	-357.897125
2332.176269	316.437195	-225.683228	-369.527771
2332.179582	318.599670	-227.845703	-380.106354
2332.182852	319.710114	-231.001755	-391.912323
2332.186196	321.755707	-233.339554	-403.835205
2332.189511	324.677979	-235.969604	-415.933350
2332.192866	326.665100	-238.307419	-428.031525
2332.196295	327.717133	-240.995926	-442.526001
2332.199603	328.418488	-243.859726	-457.137329
2332.202937	329.119812	-246.022217	-470.638214
2332.206185	330.113403	-249.704285	-485.249573
2332.209965	330.054932	-251.983627	-499.159546
2332.213286	330.464050	-254.730576	-514.939758
2332.216242	329.528931	-256.074799	-529.901794
2332.220042	328.418488	-260.049072	-546.324951
2332.222984	328.184692	-261.685547	-562.105164
2332.226696	326.314423	-264.257141	-578.995911
2332.230013	324.677979	-266.770294	-595.535950
2332.233307	322.340149	-268.348297	-612.601990
2332.236737	319.651672	-270.627686	-628.966675
2332.240036	316.554047	-272.614838	-645.915833
2332.243364	311.995331	-275.537109	-662.806580
2332.246738	307.787262	-277.056671	-679.638794
2332.250065	302.819397	-278.400909	-695.828125
2332.253361	297.909973	-280.680298	-711.959045
2332.256794	291.948578	-281.030975	-730.077087
2332.260098	284.993561	-282.375214	-746.909424
2332.263418	278.097015	-283.661011	-762.748108
2332.266804	271.375793	-283.953247	-780.340210
2332.270151	264.011688	-284.303894	-795.945068
2332.273481	254.952667	-284.011658	-813.537109
2332.276822	246.711853	-283.836334	-828.849792
2332.280129	237.652832	-282.784332	-842.701355
2332.283467	228.886047	-282.667419	-857.955566
2332.286787	218.599655	-281.323181	-873.092957
2332.290151	208.254822	-280.212738	-886.009277
2332.293466	198.728241	-278.225586	-899.860840
2332.296804	186.805374	-276.589111	-913.537109
2332.300151	175.876099	-273.199280	-925.986023
2332.303463	163.777908	-270.335449	-938.376404
2332.306767	152.030396	-266.536530	-949.714722
2332.310155	139.113968	-263.438904	-961.403809
2332.313477	126.139099	-258.938629	-970.404419
2332.316819	112.813568	-254.379898	-979.638733
2332.320186	98.143776	-249.412048	-989.516052
2332.323491	85.285797	-244.268860	-998.166016
2332.326869	70.265343	-238.599655	-1006.231445
2332.330163	56.004677	-233.047333	-1011.433105
2332.333496	40.458210	-227.378143	-1018.680298
2332.336795	24.911751	-220.247803	-1022.888428
2332.340172	9.423728	-212.825241	-1026.979492
2332.343493	-6.648744	-205.928696	-1030.135620
2332.347252	-24.065458	-198.155472	-1032.882446
2332.350584	-40.021038	-191.083572	-1032.181152
2332.353916	-56.444183	-183.836349	-1033.817627
2332.357258	-73.218002	-175.186447	-1032.590332
2332.360648	-89.991814	-166.361191	-1030.661621
2332.363959	-106.122734	-158.880188	-1027.797729
2332.367273	-122.779655	-150.288727	-1022.596191
2332.370668	-139.787262	-141.814148	-1018.154297
2332.373972	-155.684387	-133.514908	-1012.134399
2332.377336	-170.880188	-125.332565	-1004.945679
2332.380644	-187.420212	-117.325546	-997.055542
2332.383959	-202.440689	-108.441841	-988.697815
2332.387363	-216.993561	-100.259499	-979.931030
2332.390690	-231.137344	-92.018700	-969.177063
2332.393988	-244.813553	-83.894798	-957.897095
2332.397344	-258.431335	-75.829338	-946.091187
2332.400670	-270.529510	-67.939217	-934.460510
2332.403978	-282.861481	-60.399765	-922.070129
2332.407306	-294.550568	-52.158970	-909.504395
2332.410615	-305.713623	-44.502628	-895.535950
2332.413952	-316.526001	-37.664524	-882.561096
2332.417251	-326.403290	-30.358856	-868.943298
2332.420689	-335.696106	-22.644066	-854.331970
2332.423984	-343.936890	-14.929282	-840.071289
2332.427344	-351.651672	-8.441847	-824.641724
2332.430718	-359.950928	-1.019287	-809.855103
2332.434072	-367.256592	5.526593	-795.185303
2332.437396	-371.815308	13.358270	-779.346558
2332.440823	-377.893616	19.962595	-765.202820
2332.444128	-383.036804	27.034485	-749.481018
2332.447440	-387.770874	32.586792	-734.343689
2332.450790	-391.920502	39.483345	-718.212769
2332.454156	-396.128571	45.444767	-703.075378
2332.457453	-398.349487	51.873756	-687.762695
2332.460881	-400.570435	57.601402	-672.450012
2332.464171	-404.486267	63.095264	-657.487976
2332.467485	-405.772064	68.647575	-643.052002
2332.470818	-406.707184	73.732323	-626.745728
2332.474151	-409.512573	78.057274	-611.549927
2332.477467	-408.928101	82.674461	-596.061951
2332.480839	-409.044983	86.473404	-581.450623
2332.484183	-409.921661	90.973694	-566.605469
2332.487494	-409.395660	94.421974	-551.409729
2332.491265	-409.571014	97.578026	-536.213928
2332.494562	-407.876099	100.967850	-522.070129
2332.497956	-408.811218	103.422554	-507.751038
2332.501282	-406.707184	106.111046	-493.782532
2332.504598	-404.310944	108.331963	-480.047913
2332.507906	-402.732910	110.319115	-466.547058
2332.511279	-402.090027	112.598480	-453.805969
2332.514625	-398.407959	113.533600	-438.843964
2332.517991	-396.479248	115.053185	-426.161285
2332.521339	-393.381653	115.637634	-414.238434
2332.524680	-390.868500	116.455872	-402.198700
2332.527978	-388.705994	117.449448	-391.094116
2332.531304	-385.199310	118.267677	-379.872589
2332.534594	-383.212158	118.501457	-368.358856
2332.537969	-379.062531	119.261253	-357.780243
2332.541317	-376.549377	118.852135	-347.610748
2332.544651	-372.516663	119.319702	-337.207489
2332.547949	-370.178833	119.085922	-327.505524
2332.551272	-364.743408	119.495033	-318.095856
2332.554640	-361.119812	119.787262	-308.335449
2332.557974	-357.496216	119.962593	-299.393341
2332.561344	-353.521912	119.436584	-290.509613
2332.564687	-350.541199	119.436584	-283.437744
2332.567978	-346.976044	119.904144	-275.080048
2332.571321	-342.534210	119.436584	-268.417267
2332.574662	-338.910583	120.021042	-260.585602
2332.577952	-334.877838	119.436584	-253.572189
2332.581311	-331.020477	119.319702	-246.850967
2332.584619	-327.104614	119.319702	-239.369980
2332.587989	-323.188782	119.553482	-232.707199
2332.591289	-318.571594	119.553482	-226.278183
2332.594643	-315.766205	118.559906	-220.784332
2332.597991	-312.317932	118.384575	-214.238464
2332.601370	-308.635895	119.144356	-208.861481
2332.605130	-303.960266	117.917015	-203.952087
2332.608625	-299.635315	117.332550	-198.107529
2332.611987	-296.362366	117.390999	-192.204559
2332.615297	-292.563416	116.163643	-187.119827
2332.618622	-289.582703	116.397430	-182.327301
2332.621962	-285.199310	115.812981	-177.476349
2332.625292	-281.751038	114.936295	-172.274689
2332.628620	-277.776733	114.468727	-166.839279
2332.631951	-274.796021	113.650497	-163.098770
2332.635288	-271.055511	112.832260	-158.773819
2332.638619	-267.782593	111.955582	-153.689072
2332.641971	-263.866760	111.838684	-149.481003
2332.645292	-261.178253	110.903557	-145.331390
2332.648620	-257.379303	109.500870	-141.473999
2332.651953	-255.099930	108.974869	-137.616608
2332.655282	-252.060791	108.039749	-134.168320
2332.658615	-248.904739	106.812393	-131.246063
2332.661955	-245.807144	105.935715	-126.687317
2332.665282	-244.170654	104.533020	-123.355927
2332.668620	-240.196381	104.474571	-120.082993
2332.671950	-238.033905	103.656342	-117.452957
2332.675289	-235.637634	101.786087	-113.595566
2332.678617	-232.540024	101.493866	-111.491531
2332.681951	-230.202209	100.383400	-108.978378
2332.685297	-227.922867	100.032730	-106.231445
2332.688621	-225.994156	99.039162	-104.361191
2332.691947	-223.890137	98.279366	-102.198715
2332.695287	-221.493851	97.870255	-100.036240
2332.698614	-219.214508	96.993568	-97.932205
2332.701944	-216.584457	96.467560	-95.419052
2332.705279	-214.714203	95.883102	-93.490356
2332.708612	-212.902390	94.889542	-91.561661
2332.711948	-211.090576	95.064873	-89.516068
2332.715278	-209.571014	94.772644	-88.113388
2332.718611	-206.999420	94.071304	-86.126251
2332.721948	-205.362946	93.253067	-84.723557
2332.725279	-203.375809	93.720634	-82.736420
2332.728630	-201.622437	93.019287	-81.859741
2332.732373	-200.102859	92.843948	-80.573929
2332.735722	-197.998825	92.084160	-78.937469
2332.739064	-196.128571	92.201050	-77.827011
2332.742401	-194.141434	92.084160	-76.190536
2332.745715	-193.206314	91.791931	-74.787842
2332.749029	-191.686722	91.149040	-73.560486
2332.752372	-189.699600	90.915253	-72.099350
2332.755701	-187.712448	90.564583	-71.281128
2332.759048	-185.842194	90.447693	-70.755112
2332.762367	-184.439514	90.097023	-68.943314
2332.765748	-183.212158	90.155464	-67.599060
2332.769031	-182.101700	89.220337	-67.073059
2332.772397	-180.582108	88.928116	-66.254822
2332.775728	-179.588547	88.109879	-64.384567
2332.779057	-178.185852	88.226768	-63.741673
2332.782381	-176.958511	88.226768	-62.806545
2332.785703	-176.666275	87.759209	-61.462307
2332.789024	-174.679138	87.350090	-60.819401
2332.792361	-174.328461	86.707184	-61.228527
2332.795703	-173.042664	86.882523	-60.351841
2332.799027	-172.691986	86.298073	-59.007603
2332.802370	-171.406189	85.421387	-58.598484
2332.805699	-170.471069	85.655167	-57.897137
2332.809085	-170.178848	85.129166	-56.552898
2332.812378	-169.594391	85.421387	-55.676212
2332.815725	-169.243713	85.187607	-55.617764
2332.819036	-168.659256	85.012276	-54.974873
2332.822785	-167.081238	84.018700	-54.682644
2332.826116	-167.315018	84.310928	-53.981297
2332.829448	-166.847458	84.194038	-54.448856
2332.832859	-165.853882	84.135590	-53.864407
2332.836134	-165.620102	84.135590	-54.448856
2332.839522	-164.977203	83.901810	-53.163059
2332.842903	-164.509644	83.726479	-53.046169
2332.846132	-165.035660	84.194038	-51.994152
2332.849449	-164.275864	85.012276	-52.637058
2332.852805	-163.340744	85.129166	-51.994152
2332.856160	-163.691406	84.953827	-51.818821
2332.859469	-163.340744	85.187607	-51.994152
2332.862852	-162.522491	85.596725	-51.994152
2332.866190	-162.171829	85.888954	-52.111042
2332.869593	-162.230270	86.005844	-52.929279
2332.872782	-162.580948	86.298073	-52.461720
2332.876133	-161.996490	86.531853	-51.585041
2332.879459	-161.353592	87.233200	-51.175922
2332.882820	-161.295135	87.174751	-52.227940
2332.886132	-161.879608	87.759209	-52.695499
2332.889523	-161.353592	87.700760	-52.637058
2332.892862	-161.178253	88.928116	-52.052601
2332.896171	-161.528931	89.161896	-52.461720
2332.899446	-160.769150	89.571007	-52.987728
2332.902789	-161.353592	89.220337	-52.929279
2332.906114	-161.412033	89.571007	-53.338398
2332.909462	-161.236710	90.447693	-53.455288
2332.912805	-161.704269	90.564583	-53.455288
2332.916195	-162.697830	90.915253	-53.981297
2332.919532	-162.697830	91.616600	-55.091763
2332.923206	-163.282288	91.499710	-54.799534
2332.926557	-163.223846	92.434837	-55.383984
2332.929971	-164.158966	92.960838	-55.033314
2332.933297	-164.392746	93.253067	-55.208652
2332.936655	-164.626526	93.311508	-56.026882
2332.940019	-165.269440	94.188194	-56.202221
2332.943329	-166.321442	94.188194	-56.436001
2332.946706	-166.789017	94.889542	-56.728230
2332.950085	-167.256577	95.181763	-57.254238
2332.953386	-167.841034	95.415543	-57.780247
2332.956359	-168.659256	96.000000	-59.358273
2332.959951	-169.769714	96.818237	-59.825832
2332.963308	-170.880188	97.694916	-61.637638
2332.966651	-171.230850	97.694916	-62.748104
2332.969966	-172.633545	98.922272	-62.864994
2332.973443	-173.393341	99.156052	-63.274105
2332.976838	-174.211578	99.974289	-64.443008
2332.980203	-174.796021	100.792519	-65.962585
2332.983467	-176.257156	102.195206	-67.131500
2332.986806	-177.659851	102.954994	-67.774414
2332.990092	-178.185852	104.065460	-68.125076
2332.993446	-179.179428	104.591461	-69.118652
2332.996749	-180.874344	105.585037	-70.755112
2333.000142	-182.277023	107.338402	-72.450027
2333.003436	-182.510803	108.624191	-74.086502
2333.006764	-183.153717	110.377563	-75.839859
2333.010133	-184.381058	110.962006	-76.132080
2333.013513	-186.485092	112.247810	-78.645233
2333.016845	-188.004669	114.176498	-78.762131
2333.020200	-189.348923	114.994736	-81.158386
2333.023477	-190.167160	116.222092	-82.736420
2333.026848	-191.745178	117.741669	-84.022217
2333.030171	-193.673874	119.027473	-85.717117
2333.033464	-193.966110	120.021042	-88.288712
2333.036861	-195.836349	121.949730	-89.457626
2333.040183	-197.180603	122.884857	-91.386322
2333.043503	-198.466385	124.696671	-92.905914
2333.046828	-200.278198	126.917587	-95.126831
2333.050145	-201.739334	128.144943	-97.347763
2333.053902	-203.492691	129.664536	-100.036240
2333.057230	-206.064285	130.950317	-102.081833
2333.060200	-207.116302	133.171249	-104.244308
2333.063898	-209.395676	134.457031	-107.225021
2333.067249	-210.856812	135.859726	-109.270599
2333.070568	-212.551727	137.496201	-111.900650
2333.073899	-214.889542	138.957336	-114.998245
2333.077268	-217.110458	140.301575	-117.862076
2333.080615	-218.980713	142.347168	-119.966110
2333.083916	-222.253647	143.808304	-123.297501
2333.087303	-223.364105	146.029221	-126.453537
2333.090596	-225.760376	147.607239	-129.551147
2333.093954	-228.098190	149.419052	-133.525421
2333.097239	-230.669769	151.406189	-136.856812
2333.100575	-233.182922	153.451782	-140.246643
2333.103970	-236.338989	155.672699	-143.928696
2333.107281	-237.975449	157.601410	-148.896561
2333.110619	-240.371719	159.822327	-153.046173
2333.113908	-242.183502	162.101700	-157.488022
2333.117245	-245.281113	164.673294	-162.222092
2333.120609	-247.911163	166.660431	-166.956177
2333.123926	-249.372314	168.939804	-170.872009
2333.127232	-251.184097	171.628281	-175.664536
2333.130565	-254.807709	174.199875	-180.749283
2333.133847	-257.028656	177.122147	-185.424911
2333.137297	-258.197540	180.219757	-191.561661
2333.140597	-260.067810	182.849792	-197.113968
2333.143919	-262.814728	185.830505	-203.484512
2333.147267	-265.853882	189.044998	-207.575684
2333.150603	-268.016357	191.791931	-212.718872
2333.153960	-269.126831	195.415543	-219.556976
2333.157740	-272.575104	197.987137	-226.278183
2333.160643	-273.393341	201.260071	-231.772079
2333.163980	-275.848053	204.474579	-238.610184
2333.167338	-277.542969	207.338394	-244.337814
2333.171096	-279.822327	209.968430	-252.753952
2333.174451	-281.984802	213.767395	-259.182922
2333.177783	-284.030396	216.631210	-266.897705
2333.181121	-286.134430	220.137939	-275.547607
2333.184072	-287.829346	223.703079	-282.327301
2333.187815	-290.108704	226.157791	-290.977173
2333.191166	-292.212738	229.313858	-299.276428
2333.194526	-293.615417	232.236115	-307.575684
2333.197836	-295.427246	235.509048	-316.342499
2333.201219	-297.063690	238.606659	-327.388672
2333.204485	-299.050842	240.827591	-336.623016
2333.207799	-300.570435	244.100540	-345.915833
2333.211131	-302.323792	245.970779	-355.676178
2333.214420	-302.908234	248.717697	-365.611938
2333.217766	-305.187592	250.880173	-376.950317
2333.221107	-305.947388	254.328445	-388.054932
2333.224435	-307.525421	256.783173	-399.276428
2333.227773	-307.934540	259.588531	-411.374603
2333.231101	-309.454132	262.218597	-421.836334
2333.234479	-308.869659	264.907074	-434.752747
2333.237848	-309.044983	267.011108	-448.370544
2333.241131	-309.103455	269.524261	-461.053162
2333.244445	-308.811218	271.336090	-472.976013
2333.247749	-308.168335	273.907654	-486.418457
2333.251142	-306.531860	275.661041	-499.568665
2333.254478	-304.778503	278.641754	-514.121582
2333.257770	-303.434235	280.628906	-527.505554
2333.261138	-300.161316	281.739349	-540.831055
2333.264473	-298.174164	283.668030	-554.624146
2333.268213	-294.258331	286.122742	-569.410828
2333.271891	-291.394501	287.583893	-583.613098
2333.275224	-286.660431	288.343658	-597.055542
2333.278557	-282.803040	289.980164	-611.082397
2333.281884	-278.594971	291.324371	-624.057312
2333.285223	-272.633545	292.259491	-639.428406
2333.288552	-267.022797	293.194641	-654.682617
2333.291891	-260.535370	294.071320	-668.592651
2333.295247	-254.457031	294.597321	-682.385742
2333.298552	-248.086487	294.305084	-696.938599
2333.301887	-240.488586	293.837524	-710.264160
2333.305223	-232.598480	292.727081	-725.401489
2333.308558	-224.065460	292.902405	-738.843933
2333.311888	-216.175339	291.207520	-752.344849
2333.315214	-207.174744	288.869690	-766.488647
2333.318550	-197.414383	288.226776	-780.749207
2333.321884	-187.128006	284.836975	-794.308533
2333.325217	-176.841614	282.908264	-806.991211
2333.328557	-166.847458	280.102875	-819.323120
2333.331887	-155.684387	275.661041	-832.590271
2333.335224	-144.871994	271.511414	-846.850952
2333.338576	-132.949158	267.244904	-858.130920
2333.341886	-120.558739	262.277069	-869.761536
2333.345220	-108.460548	257.192291	-879.171265
2333.348552	-95.777908	251.113968	-891.620056
2333.351905	-82.861488	245.853882	-902.900024
2333.355213	-69.126823	240.126236	-911.725342
2333.358553	-55.041496	233.521927	-922.070129
2333.361877	-41.832848	226.391586	-930.720032
2333.365216	-27.104618	218.910583	-940.012817
2333.368551	-12.727060	211.721786	-947.493835
2333.371880	2.644068	204.416138	-954.039734
2333.375215	17.898304	196.584457	-959.533569
2333.378546	32.743427	187.876099	-964.442993
2333.381895	48.932789	180.862656	-967.891296
2333.385206	64.654594	172.797195	-971.865540
2333.388545	79.499710	164.381058	-975.138489
2333.391876	95.279953	156.315598	-975.606079
2333.395211	111.469315	147.490356	-976.658081
2333.398551	126.548218	139.775574	-976.132080
2333.401884	142.211578	131.534775	-976.307373
2333.405208	157.874924	123.293983	-973.560547
2333.408545	173.187607	115.228523	-971.047302
2333.411908	187.740509	107.396843	-967.131531
2333.415217	203.111633	100.617180	-961.637573
2333.418544	217.313843	92.902397	-957.721802
