time (s)	magX	magY	magZ
1098.277459	230.756287	-26.150787	-1172.391602
1098.280768	248.406769	-38.248978	-1162.280518
1098.284072	266.115723	-50.054939	-1151.584961
1098.287427	281.369965	-60.575104	-1138.668579
1098.290775	297.676208	-71.387497	-1124.933960
1098.294138	313.514923	-81.849213	-1112.192871
1098.297447	328.184692	-90.849792	-1096.646362
1098.300789	341.510223	-100.668610	-1079.112793
1098.304172	355.537109	-110.136765	-1062.280518
1098.307502	366.115723	-117.968445	-1045.331421
1098.310820	379.382812	-125.800125	-1026.804199
1098.314174	389.786072	-133.514908	-1007.108154
1098.317475	398.728210	-139.768555	-986.652283
1098.320815	408.663940	-146.197540	-966.488647
1098.324130	416.495605	-152.100525	-946.558777
1098.327451	425.028656	-156.250137	-925.752136
1098.330841	431.574524	-162.036240	-904.887207
1098.334211	438.178864	-166.185852	-884.489746
1098.337524	442.562225	-169.926361	-864.150818
1098.340813	446.069000	-173.608414	-843.227356
1098.344130	450.569275	-177.173584	-821.544189
1098.347527	454.075989	-180.037399	-800.094666
1098.350848	456.121582	-182.959671	-779.405029
1098.354153	459.219147	-185.355942	-757.371155
1098.357500	460.680328	-187.576859	-737.616577
1098.360854	460.095856	-188.921097	-718.504944
1098.364182	461.966125	-190.440674	-699.568665
1098.367974	461.147858	-192.427811	-678.645203
1098.371345	460.563416	-194.122726	-660.760986
1098.374670	460.329620	-194.765625	-641.707764
1098.377578	457.056702	-195.408524	-622.771423
1098.381280	455.244904	-196.168320	-604.887207
1098.384609	452.205750	-197.570999	-586.067749
1098.387958	450.452362	-197.395676	-568.651062
1098.391367	448.874359	-197.629471	-551.175903
1098.394698	444.490936	-198.038574	-534.285217
1098.398002	441.393372	-197.863235	-517.043823
1098.401313	438.354187	-197.278778	-500.971375
1098.404626	432.977173	-197.044998	-485.191101
1098.408040	429.528931	-196.752777	-470.287567
1098.411338	425.379303	-195.934555	-455.091766
1098.414690	421.580353	-194.882523	-438.785492
1098.418106	416.670959	-193.362946	-424.232605
1098.421421	411.352417	-191.726471	-410.731750
1098.424741	406.676788	-190.908249	-397.055511
1098.428113	401.416718	-190.089996	-383.028656
1098.431410	397.442413	-187.985977	-370.988892
1098.434816	392.182343	-187.401520	-357.838684
1098.438164	387.331360	-185.239044	-346.734070
1098.441508	382.012848	-183.485672	-334.635864
1098.444800	377.220337	-180.914078	-323.355927
1098.448138	372.252502	-180.271179	-312.251312
1098.451445	366.992401	-177.524261	-301.789581
1098.454787	362.199890	-175.829346	-291.386322
1098.458063	357.465790	-172.848633	-282.327301
1098.461446	352.147278	-171.738159	-273.034485
1098.464756	347.004089	-168.932785	-263.215668
1098.468101	341.685577	-167.354767	-254.565750
1098.471449	337.243713	-165.250732	-246.558731
1098.474822	332.801880	-162.679138	-238.142624
1098.478169	328.476929	-160.925766	-230.836960
1098.481528	324.268860	-158.938629	-222.946823
1098.484873	319.710114	-157.126816	-215.991821
1098.488249	313.924011	-154.379898	-209.445938
1098.491597	309.715942	-152.568085	-204.010513
1098.494990	305.741669	-151.223846	-197.581543
1098.498727	301.533600	-148.769135	-192.263016
1098.502050	297.734650	-148.360031	-186.418472
1098.505379	293.059021	-146.431335	-180.047928
1098.508717	288.500305	-144.093521	-175.839859
1098.512046	284.116882	-142.457047	-170.579773
1098.515379	280.960815	-141.405029	-165.436584
1098.518721	276.460571	-139.534775	-160.760956
1098.522050	273.129150	-138.658096	-156.494461
1098.525377	268.979523	-135.677383	-151.994171
1098.528740	265.706604	-134.566910	-147.260086
1098.532045	261.557007	-133.690247	-143.227356
1098.535375	257.933350	-132.521332	-138.902405
1098.538709	253.959106	-130.417297	-134.811234
1098.542054	250.803040	-129.131500	-131.538284
1098.545380	247.646973	-128.371719	-127.213333
1098.548707	244.257141	-126.501465	-123.589706
1098.552041	241.276443	-125.858566	-120.316772
1098.555380	237.652832	-123.228531	-117.686737
1098.558705	234.438339	-121.884277	-114.180008
1098.562039	232.158981	-120.773819	-111.608414
1098.565371	228.944473	-119.838692	-109.153717
1098.568707	226.781998	-118.845116	-105.296326
1098.572056	224.093521	-117.793106	-102.783173
1098.575373	220.703674	-116.039742	-99.218002
1098.578709	218.132095	-114.286392	-97.289307
1098.582041	215.969620	-114.461723	-94.367050
1098.585409	213.514908	-112.065460	-92.029221
1098.588703	210.709534	-111.130333	-90.217422
1098.592039	208.137924	-110.019875	-88.113388
1098.595800	206.209244	-108.850967	-85.658691
1098.599124	204.163651	-107.682060	-83.613083
1098.602484	202.585632	-106.688492	-81.509064
1098.605805	200.890717	-105.928696	-80.573929
1098.609129	198.319107	-104.350677	-78.294571
1098.612455	196.857986	-103.473984	-77.184113
1098.615848	195.046173	-102.480423	-75.547638
1098.619174	193.468155	-101.895966	-73.911163
1098.622479	191.597900	-101.311516	-72.333130
1098.625846	190.195206	-100.785507	-71.105789
1098.629127	188.324966	-99.908829	-70.521332
1098.632486	187.623611	-99.382820	-69.118652
1098.635796	185.987152	-98.798363	-67.949738
1098.639155	184.759796	-97.921684	-67.365280
1098.642455	183.064880	-97.454117	-65.728806
1098.645823	181.603745	-97.103455	-64.735245
1098.649127	180.142609	-96.518997	-63.741673
1098.652477	178.681473	-96.051430	-63.157215
1098.655812	177.161896	-95.466988	-62.455875
1098.659151	176.226761	-95.174759	-61.579197
1098.662500	175.408539	-93.888954	-61.286968
1098.665788	174.298065	-94.181183	-59.533604
1098.669122	173.246063	-93.655167	-59.299824
1098.672452	172.018707	-92.836937	-58.014027
1098.675805	170.206894	-93.362946	-57.429577
1098.679616	168.979553	-92.427818	-56.962009
1098.682496	169.096436	-92.194038	-56.377560
1098.686327	168.395081	-92.544708	-55.150204
1098.689650	167.167740	-91.784920	-55.091763
1098.692952	166.291061	-91.200470	-53.747517
1098.696217	166.115723	-90.908241	-53.864407
1098.699541	165.180603	-90.382233	-53.046169
1098.702875	164.187027	-90.616013	-52.461720
1098.706243	163.310349	-90.323792	-53.104618
1098.709562	162.784332	-90.674461	-51.701931
1098.712971	162.492111	-89.563995	-51.935711
1098.716275	161.966110	-89.914673	-51.409702
1098.719618	161.790756	-89.505554	-51.234371
1098.722876	160.914078	-88.862656	-50.825245
1098.726230	160.914078	-89.213326	-50.766804
1098.729540	160.855637	-89.213326	-50.007015
1098.732897	159.803619	-89.505554	-49.714787
1098.736247	159.803619	-89.388664	-50.474575
1098.739611	159.745178	-89.330215	-49.305668
1098.742939	158.868500	-89.096436	-50.240795
1098.746211	159.628296	-88.862656	-48.954998
1098.749560	159.277618	-88.161308	-49.071888
1098.752878	159.920517	-89.096436	-49.773235
1098.756222	159.043839	-89.037994	-49.890125
1098.759576	159.978958	-88.687317	-50.182354
1098.762917	160.037415	-88.862656	-49.831676
1098.766305	159.511398	-89.388664	-50.883694
1098.769651	160.563416	-89.622444	-50.942135
1098.773293	160.329636	-90.031563	-50.474575
1098.776662	160.388077	-90.090012	-51.175922
1098.780055	161.206314	-90.499123	-50.766804
1098.783409	161.381653	-91.434250	-52.227940
1098.786366	161.615433	-91.375809	-52.461720
1098.790051	162.024536	-91.551140	-51.760372
1098.793367	162.725891	-91.726479	-53.104618
1098.796707	162.667450	-92.603157	-53.747517
1098.800100	163.894806	-92.895386	-54.039745
1098.803471	164.187027	-93.421387	-54.390415
1098.806800	164.362366	-93.772064	-54.565746
1098.810108	164.771484	-93.947403	-55.383984
1098.813490	165.472824	-94.531860	-56.202221
1098.816824	166.524841	-96.343658	-56.552898
1098.820137	166.641739	-95.759201	-57.078899
1098.823523	167.927521	-96.285217	-57.838696
1098.826850	168.687317	-97.161888	-59.299824
1098.830190	168.628876	-97.337234	-58.715374
1098.833500	170.616013	-98.038582	-59.533604
1098.836828	170.732895	-99.207489	-61.170078
1098.840126	171.375809	-99.382820	-60.585621
1098.843499	172.252487	-100.493279	-62.163647
1098.846819	174.005844	-100.668610	-63.800121
1098.850126	174.824081	-101.486855	-63.858562
1098.853446	175.116302	-102.071297	-64.092346
1098.856839	177.161896	-103.181770	-64.793686
1098.860126	177.512573	-103.357101	-67.073059
1098.863497	179.324371	-104.642906	-66.547058
1098.866819	180.843948	-105.168907	-68.417297
1098.870148	182.538864	-105.928696	-70.579788
1098.873532	183.707764	-107.272934	-71.865570
1098.876827	185.285797	-107.623611	-73.092926
1098.880648	186.805374	-108.441841	-75.021622
1098.883939	188.850952	-110.195206	-75.722977
1098.886919	190.428986	-110.545876	-77.943893
1098.890662	192.182358	-111.773232	-79.346573
1098.893971	194.286377	-112.474571	-82.151947
1098.897290	195.805969	-114.987732	-83.963760
1098.900646	198.143784	-116.448860	-84.781998
1098.904002	200.072464	-117.383980	-88.054932
1098.907301	202.059616	-118.377556	-89.749847
1098.910606	203.929855	-119.663361	-91.853882
1098.913921	206.384567	-121.475159	-94.659271
1098.917251	208.313263	-122.351837	-95.945068
1098.920554	209.657516	-123.988312	-98.165985
1098.923988	212.521317	-125.624771	-101.614273
1098.927278	214.216248	-126.969025	-104.010529
1098.930592	217.956741	-128.839279	-106.699005
1098.933939	219.651657	-130.943314	-109.679718
1098.937301	221.638809	-132.755112	-112.485107
1098.940648	224.794846	-134.391586	-114.881363
1098.944028	226.957336	-136.612518	-118.504974
1098.947324	229.061371	-137.489182	-122.128586
1098.950658	230.814728	-139.651672	-124.583282
1098.953970	234.087662	-141.989487	-128.265335
1098.957297	236.542374	-143.801285	-132.181183
1098.960677	240.049088	-145.496201	-135.687912
1098.964063	242.445358	-147.950897	-139.428406
1098.967369	245.484497	-149.645813	-143.870255
1098.970698	248.289886	-151.457626	-147.318527
1098.974447	250.861481	-152.860321	-152.461731
1098.977747	253.549957	-155.256577	-155.910004
1098.981135	257.582703	-158.061966	-160.819412
1098.984452	260.212738	-159.815308	-165.027466
1098.987757	263.777893	-162.211578	-170.930466
1098.991057	265.881958	-163.205154	-176.541214
1098.994405	270.908234	-166.068954	-181.684402
1098.997775	274.239624	-167.939224	-186.535370
1099.001160	277.044983	-170.627701	-192.321457
1099.004508	280.785492	-172.965515	-198.692001
1099.007846	284.876678	-175.244888	-204.711868
1099.011167	288.558716	-177.991821	-210.497955
1099.014501	293.000580	-180.271179	-217.043839
1099.017831	296.273529	-182.433670	-224.174179
1099.021309	299.721802	-185.180588	-231.304520
1099.024613	304.572754	-186.933960	-239.253067
1099.027933	308.137939	-189.914673	-247.260086
1099.031294	313.164246	-192.077148	-256.260651
1099.034624	316.378723	-195.233185	-264.442993
1099.037957	319.710114	-198.915253	-273.618927
1099.041289	324.268860	-201.253067	-283.496185
1099.044624	328.535339	-204.233780	-292.263000
1099.047976	332.392761	-207.682053	-303.367615
1099.051300	336.367035	-210.779663	-312.718872
1099.054609	339.581512	-213.818832	-322.713043
1099.058021	344.783173	-216.916428	-334.051422
1099.061312	347.179413	-219.312683	-345.798950
1099.064673	351.621277	-222.877853	-357.195770
1099.068030	356.530670	-226.384583	-368.651062
1099.071381	359.569855	-228.956161	-381.333740
1099.074685	363.719482	-232.871994	-394.308563
1099.078022	367.985962	-234.859146	-407.458771
1099.081317	369.797791	-238.424316	-421.310333
1099.084738	373.479828	-241.346588	-435.103455
1099.088071	376.226776	-244.444199	-451.234344
1099.091386	379.675049	-246.723541	-465.202789
1099.094688	383.357117	-250.230270	-479.989502
1099.098441	385.285797	-252.684982	-496.471069
1099.101991	388.617187	-256.133240	-512.134399
1099.105320	389.786072	-258.763275	-527.037964
1099.108652	392.474579	-261.276428	-545.214478
1099.111987	394.052582	-263.614258	-562.280518
1099.115323	396.565765	-265.250702	-578.411438
1099.118649	397.910004	-267.705414	-596.821716
1099.121983	399.604919	-268.465210	-616.342468
1099.125336	399.078888	-270.510803	-633.876099
1099.128650	399.955597	-271.095245	-653.279968
1099.131984	400.189392	-273.374634	-672.742249
1099.135318	400.306244	-274.485077	-692.204590
1099.138648	398.260681	-274.777313	-712.426636
1099.141982	397.793091	-275.011078	-732.940979
1099.145344	396.156616	-275.011078	-753.572144
1099.148646	394.461700	-276.121552	-774.086487
1099.151980	391.422546	-275.946198	-795.360535
1099.155352	388.149628	-275.127991	-817.394531
1099.158648	384.526001	-274.601990	-838.434814
1099.161981	380.610168	-273.491486	-859.241394
1099.165309	375.642303	-271.679718	-882.385742
1099.168679	368.979523	-269.926361	-902.432556
1099.171979	362.082977	-268.231445	-925.343018
1099.175310	354.601990	-265.250702	-946.734009
1099.178650	347.530121	-262.971344	-966.663940
1099.181988	336.834595	-260.165985	-988.989990
1099.185315	328.827576	-257.185272	-1008.101685
1099.188642	318.424316	-253.912338	-1029.784912
1099.191983	306.442993	-249.938049	-1048.370605
1099.195307	294.929260	-245.729980	-1067.365234
1099.198677	281.662201	-241.521927	-1085.833984
1099.201973	268.453522	-236.261841	-1102.549316
1099.205306	254.777313	-230.651077	-1119.440063
1099.208647	240.049088	-225.449463	-1135.161865
1099.211982	225.028641	-218.845123	-1149.656250
1099.215741	209.189941	-212.649902	-1162.631226
1099.219070	192.708359	-205.168900	-1175.255371
1099.222401	176.285217	-198.272354	-1187.587402
1099.225752	159.160736	-189.856216	-1197.873779
1099.229061	140.399765	-181.089432	-1206.932861
1099.232399	122.573929	-172.673294	-1215.582642
1099.235740	104.222092	-163.380478	-1222.070068
1099.239066	85.052017	-152.509644	-1227.388672
1099.242446	65.706604	-143.450623	-1231.888916
1099.245759	46.361191	-131.936890	-1235.278809
1099.249090	26.723553	-121.650497	-1237.733398
1099.252481	7.611922	-110.545876	-1238.084106
1099.255752	-13.019287	-98.447693	-1237.967285
1099.259060	-32.364700	-87.226181	-1235.863159
1099.262391	-52.469902	-74.601982	-1232.707153
1099.265728	-72.224434	-63.555817	-1228.732910
1099.269056	-91.394508	-51.106956	-1223.414429
1099.272398	-110.213913	-38.307423	-1216.225586
1099.275733	-129.325546	-25.858562	-1207.984863
1099.279089	-148.554062	-13.000585	-1196.763306
1099.282419	-167.198120	-1.077732	-1186.535400
1099.285771	-186.017532	12.189363	-1175.021606
1099.289059	-203.551147	24.287552	-1163.566284
1099.292390	-220.500290	37.145527	-1148.370605
1099.296148	-237.566345	47.841030	-1134.811157
1099.299491	-253.054352	60.056107	-1119.849243
1099.302862	-268.600800	70.926949	-1100.971313
1099.306172	-284.673309	81.973114	-1083.905273
1099.309568	-299.401520	92.142601	-1068.183472
1099.312894	-313.077728	102.370544	-1049.364136
1099.316205	-326.111053	112.423141	-1028.440674
1099.319480	-338.735229	121.365280	-1011.900635
1099.322845	-350.307434	129.839859	-991.094116
1099.326142	-361.821167	138.898880	-969.293945
1099.329527	-373.627136	146.613678	-949.831665
1099.332840	-383.445953	154.094681	-928.732849
1099.336226	-392.095856	160.815887	-908.218567
1099.339556	-399.810638	167.420212	-887.762756
1099.342810	-407.408539	173.030975	-866.663940
1099.346158	-414.421967	179.459961	-845.097656
1099.349487	-420.324951	184.369370	-825.167725
1099.352834	-425.935699	189.103439	-802.607788
1099.356165	-431.663330	193.603745	-782.561096
1099.359555	-435.579163	197.402695	-762.105164
1099.362922	-439.202789	201.201645	-741.649353
1099.366218	-442.183502	204.533020	-722.303894
1099.369477	-444.872009	207.279953	-702.023376
1099.372826	-447.268250	210.260666	-683.262390
1099.376170	-447.209808	213.066040	-664.559875
1099.379976	-448.378723	215.228516	-645.331360
1099.382941	-448.378723	216.923431	-626.336609
1099.386219	-447.735840	219.611923	-607.692566
1099.389562	-446.391602	220.780838	-588.756287
1099.393224	-447.385132	221.949738	-571.514893
1099.396582	-445.456482	223.235519	-553.396851
1099.399973	-443.761566	224.112213	-536.213928
1099.403339	-442.125061	224.462875	-518.972534
1099.406681	-439.202789	224.112213	-502.900085
1099.410023	-436.455872	224.053772	-487.119812
1099.413372	-432.423126	224.521332	-470.579773
1099.416709	-430.377533	224.696671	-455.559296
1099.420075	-425.935699	224.229111	-439.895966
1099.423378	-421.318542	223.644653	-425.284607
1099.426729	-420.032715	222.241959	-411.023956
1099.430077	-415.181763	221.715958	-397.055511
1099.433459	-411.558167	219.611923	-383.087067
1099.436777	-406.356506	218.969025	-370.287567
1099.440132	-403.200470	217.098770	-357.780243
1099.443463	-399.343079	215.228516	-345.565155
1099.446767	-394.375214	213.884262	-334.168304
1099.450079	-389.816498	212.072479	-322.128571
1099.453395	-386.017517	209.091766	-311.374634
1099.456727	-381.926361	207.572189	-300.796021
1099.460078	-375.848053	205.643478	-290.743408
1099.463449	-371.289307	202.838104	-280.164795
1099.466772	-367.139679	200.734085	-270.345978
1099.470164	-362.171844	198.279373	-261.053162
1099.473489	-357.613098	195.883102	-252.052597
1099.476805	-352.703674	192.960846	-242.993576
1099.480097	-349.196960	191.032150	-233.992996
1099.483478	-343.819977	188.577438	-226.161331
1099.486862	-339.436584	185.888962	-218.446518
1099.490200	-333.884277	183.142014	-210.848618
1099.493566	-328.916412	180.921097	-203.601410
1099.496874	-325.234344	178.524841	-197.756866
1099.500180	-321.143188	176.362350	-191.561661
1099.503538	-315.883118	173.498535	-184.898880
1099.506921	-312.668640	171.336060	-177.885452
1099.510219	-307.817627	169.407364	-172.508484
1099.513562	-302.849792	167.244888	-167.014603
1099.517338	-300.044403	165.316193	-160.760956
1099.520635	-295.894806	163.562836	-155.500885
1099.523599	-291.394501	160.640564	-151.292816
1099.527323	-286.601990	159.120972	-145.331390
1099.530660	-282.160126	156.549377	-140.363541
1099.534009	-278.653412	154.620697	-136.973694
1099.537326	-275.205139	153.042664	-132.064285
1099.540741	-271.756866	151.406189	-127.505554
1099.544048	-267.315033	149.302155	-124.232620
1099.547355	-263.165405	147.548813	-119.966110
1099.550719	-260.769165	145.912338	-115.056702
1099.554079	-256.151947	143.808304	-112.368210
1099.557380	-253.521912	142.697830	-108.919937
1099.560739	-249.255417	140.535355	-105.296326
1099.564047	-247.326706	138.781998	-101.263596
1099.567419	-242.534195	137.262421	-98.165985
1099.570733	-241.482178	135.392166	-95.243729
1099.574077	-236.163651	133.638809	-92.496780
1099.577385	-234.234940	132.177673	-89.866745
1099.580775	-231.137344	131.008774	-86.886032
1099.584160	-228.156631	128.729401	-84.139099
1099.587487	-225.234360	127.794273	-80.924606
1099.590795	-222.662781	126.742256	-78.528351
1099.594199	-220.208069	124.462891	-76.307419
1099.597515	-216.642899	123.352417	-74.203384
1099.600880	-214.188187	121.306839	-71.924026
1099.604275	-212.493271	119.962593	-69.995331
1099.607582	-210.447678	119.027473	-67.482178
1099.610901	-207.408524	117.390999	-65.319702
1099.614275	-205.304489	115.520752	-63.215664
1099.617578	-202.908249	114.293396	-61.871418
1099.620975	-202.148453	112.773811	-59.299824
1099.624268	-199.401520	112.130913	-58.423145
1099.627630	-197.122147	110.669777	-56.786678
1099.630990	-195.661011	109.383987	-55.150204
1099.634316	-192.621857	108.799530	-53.396839
1099.637618	-191.628296	107.805969	-52.812389
1099.641094	-189.232025	106.344833	-51.409702
1099.644441	-188.822906	105.468147	-49.948574
1099.647744	-186.894211	104.007011	-49.071888
1099.651142	-184.497955	103.188774	-48.312099
1099.654522	-183.504379	102.487434	-46.734074
1099.657809	-181.341904	101.727646	-45.623608
1099.661218	-180.523666	101.260086	-44.396259
1099.664577	-179.004089	100.032730	-43.285793
1099.667886	-177.659851	99.740501	-42.233784
1099.671298	-176.549393	99.389832	-40.831097
1099.674619	-174.737579	98.571594	-40.129749
1099.677925	-173.627121	97.870255	-39.369961
1099.681271	-172.458206	96.876678	-38.785511
1099.684598	-170.471069	96.701347	-38.201046
1099.687954	-169.360611	96.350670	-37.616596
1099.691313	-167.841034	95.766212	-36.798359
1099.694597	-166.496780	95.590881	-35.512562
1099.698011	-165.678558	95.357101	-35.629452
1099.701347	-165.035660	94.480415	-33.876095
1099.704650	-164.158966	94.246635	-33.291645
1099.707995	-162.814728	93.428398	-32.999416
1099.711347	-162.230270	92.610168	-32.531857
