time (s)	magX	magY	magZ
2217.232088	332.275848	-221.942719	-407.751038
2217.235427	334.379883	-225.566330	-425.343079
2217.238759	336.308594	-228.780838	-443.285797
2217.242114	338.821747	-231.820007	-462.280518
2217.245461	340.984222	-234.391586	-481.801270
2217.248815	341.218018	-235.677368	-500.971375
2217.252124	342.153137	-238.365875	-520.667480
2217.255871	343.205139	-240.937454	-540.597290
2217.259179	342.620697	-243.567505	-560.877869
2217.262522	341.685577	-245.203979	-583.437744
2217.265847	340.165985	-246.489777	-605.237854
2217.269185	337.769745	-247.366440	-627.797791
2217.272513	334.730560	-249.353592	-648.955017
2217.275832	331.282288	-251.165390	-670.112244
2217.279139	327.424896	-251.749863	-691.620117
2217.282588	322.106384	-250.814743	-713.127991
2217.285873	315.911163	-251.340744	-735.804810
2217.289207	308.956177	-250.990067	-756.728210
2217.292550	301.007599	-250.990067	-777.417847
2217.295854	292.883698	-251.223831	-797.581482
2217.299220	283.590881	-250.405609	-818.095886
2217.302600	274.005859	-249.061356	-837.674988
2217.305894	262.550568	-247.717133	-858.072449
2217.309270	251.153717	-245.846878	-875.839905
2217.312576	239.698425	-243.509064	-893.840942
2217.315883	227.717117	-241.872589	-910.790161
2217.319224	213.748672	-238.365875	-926.570435
2217.322522	199.780258	-236.320267	-940.538879
2217.325957	185.110458	-232.229111	-955.383972
2217.329272	169.973114	-228.780838	-967.832825
2217.332629	153.491531	-223.696075	-981.509033
2217.336007	137.886612	-219.020447	-991.094116
2217.339335	120.294571	-213.643494	-1002.257202
2217.342633	102.468735	-208.208069	-1011.666870
2217.345993	84.642899	-201.603729	-1018.797241
2217.349290	65.706604	-193.947403	-1026.979492
2217.352615	46.594975	-187.343079	-1032.356567
2217.355943	27.249561	-179.160721	-1037.791870
2217.359658	8.079486	-170.277039	-1040.246704
2217.363044	-12.434834	-160.633560	-1042.409180
2217.366352	-32.832260	-151.516068	-1042.233765
2217.369719	-52.119228	-142.223267	-1040.889526
2217.373493	-72.282875	-132.287552	-1039.136230
2217.376811	-92.504967	-121.942726	-1033.642334
2217.380151	-112.843948	-110.487442	-1028.031494
2217.383479	-132.890701	-99.090591	-1021.076538
2217.386820	-152.528351	-89.330215	-1012.485107
2217.390146	-171.581528	-77.290474	-1002.607788
2217.393483	-190.693161	-66.536530	-991.795410
2217.396810	-208.986557	-55.548801	-978.236084
2217.400145	-226.695511	-44.911751	-964.501465
2217.403480	-243.644653	-33.690239	-949.481018
2217.406813	-259.541809	-22.644066	-933.408569
2217.410148	-275.029816	-12.649913	-916.985413
2217.413475	-289.582703	-2.655757	-899.860840
2217.416814	-303.492706	7.630626	-881.742859
2217.420150	-316.116882	16.514320	-863.449463
2217.423476	-326.987732	24.638222	-843.344177
2217.426808	-338.501465	32.002338	-824.817078
2217.430144	-348.670959	39.717125	-804.068970
2217.433479	-358.372864	47.431911	-783.437744
2217.436811	-366.146118	52.984219	-764.618347
2217.440169	-373.802460	59.530094	-744.513123
2217.443497	-379.880768	64.965515	-725.576843
2217.446849	-386.251312	70.634712	-703.952087
2217.450143	-391.862061	75.544121	-685.717102
2217.453486	-393.615417	79.693748	-667.599060
2217.456810	-398.641724	83.843369	-648.078308
2217.460139	-400.453522	87.642319	-629.200439
2217.463467	-403.375793	90.856804	-611.433044
2217.466815	-405.830505	94.480415	-593.022766
2217.470142	-405.888947	97.402687	-574.729370
2217.473469	-406.648743	99.565163	-557.078857
2217.476811	-407.350067	102.136757	-539.545288
2217.480136	-406.005859	104.708351	-522.245422
2217.483473	-404.135590	107.221504	-505.530090
2217.486801	-402.265350	108.799530	-488.756287
2217.490154	-401.914673	110.260666	-472.157806
2217.493470	-399.343079	112.130913	-456.202209
2217.496810	-396.829926	113.884277	-438.551697
2217.500138	-394.492126	115.170074	-424.407959
2217.503473	-391.394501	116.163643	-409.445953
2217.506798	-388.121582	117.858566	-394.250153
2217.510134	-383.621277	118.735237	-378.937469
2217.513500	-379.880768	119.378136	-364.676788
2217.516806	-375.731140	119.670364	-350.708344
2217.520138	-370.880188	120.254822	-337.207489
2217.523465	-366.905884	120.254822	-323.765045
2217.526797	-361.587372	120.137932	-310.088806
2217.530138	-357.145538	120.021042	-297.756866
2217.533498	-352.236115	120.137932	-284.898865
2217.536799	-346.391571	119.436584	-273.852692
2217.540133	-340.897705	118.559906	-262.806519
2217.543463	-335.286957	118.384575	-250.942154
2217.546796	-329.793121	117.800117	-240.597336
2217.550553	-324.182373	116.455872	-230.778488
2217.553887	-318.922272	115.462303	-221.135010
2217.557222	-313.895966	114.410278	-211.491516
2217.560578	-309.629456	112.949158	-203.542953
2217.563919	-304.077148	111.254234	-196.178848
2217.567243	-298.115723	110.435997	-188.405624
2217.570550	-292.563416	108.916428	-180.398590
2217.573893	-287.712433	107.279953	-173.794281
2217.577218	-283.153717	105.701935	-166.897736
2217.580548	-279.179413	105.117477	-160.644073
2217.583891	-274.328461	103.013443	-154.799545
2217.587224	-270.003510	101.552307	-148.896561
2217.590546	-264.918793	99.682053	-143.285812
2217.593885	-261.236725	98.454704	-137.967270
2217.597251	-256.911743	97.285797	-133.817657
2217.600579	-252.586792	95.941551	-128.323792
2217.603913	-248.729385	94.538864	-124.407959
2217.607226	-244.930450	93.311508	-119.907654
2217.610544	-240.897720	91.558151	-116.400940
2217.613897	-237.040314	90.389244	-112.309769
2217.617222	-233.533615	89.512566	-109.095276
2217.620573	-229.325546	88.402100	-105.004089
2217.623877	-226.052612	87.408539	-101.088257
2217.627217	-222.955002	85.888954	-97.347763
2217.630553	-218.688477	84.895386	-94.659271
2217.633899	-215.123306	83.843369	-91.269440
2217.637231	-212.142609	82.849792	-87.821152
2217.640576	-208.285217	81.037994	-84.606659
2217.644349	-204.369370	80.745758	-81.918167
2217.647637	-201.739334	79.576851	-78.177673
2217.650972	-197.998825	78.349503	-75.781418
2217.654323	-194.082993	77.765045	-71.514908
2217.657661	-191.277618	76.654587	-68.884872
2217.661057	-188.180008	75.485680	-66.605499
2217.664418	-185.140854	74.550552	-63.741673
2217.667711	-182.393921	73.732323	-60.702511
2217.670978	-179.296326	72.855637	-58.189365
2217.674300	-176.549393	71.803619	-56.026882
2217.677640	-173.334885	71.102280	-54.916424
2217.680987	-170.120392	69.699593	-51.818821
2217.684327	-167.957916	69.056686	-49.597897
2217.687714	-164.860306	67.595558	-47.727650
2217.691036	-161.762711	67.478668	-46.208065
2217.694365	-160.009354	66.718880	-44.688488
2217.697629	-157.145523	65.316185	-42.175335
2217.700972	-155.450607	64.731735	-41.532436
2217.704315	-153.463470	63.913498	-39.837528
2217.707677	-150.774979	63.212154	-37.675045
2217.711023	-149.664520	62.277031	-37.324375
2217.714455	-147.326706	61.108124	-35.629452
2217.717715	-145.924026	60.815899	-34.928112
2217.720961	-144.229111	60.172997	-33.233196
2217.724302	-142.709518	58.828751	-32.648746
2217.727626	-141.248398	58.887199	-32.239628
2217.730997	-139.436584	58.828751	-31.362949
2217.734318	-138.209244	57.659843	-30.077152
2217.737735	-136.748108	57.075394	-29.083576
2217.741094	-135.462296	56.607830	-28.732906
2217.744368	-134.176514	55.964935	-28.090004
2217.748052	-132.949158	55.731152	-27.739330
2217.751445	-131.780243	55.088249	-26.921097
2217.754814	-130.903580	54.854469	-26.570427
2217.758135	-128.916428	54.679134	-26.804207
2217.761468	-127.981293	54.562241	-25.810638
2217.764794	-126.929276	53.568672	-24.174168
2217.768172	-126.227928	53.276443	-22.946815
2217.771468	-124.942139	53.217999	-23.297485
2217.774855	-123.539452	52.049091	-22.362362
2217.778179	-123.013443	52.341320	-22.245472
2217.781534	-122.019867	52.165985	-21.251904
2217.784899	-121.084740	51.581532	-20.959675
2217.788211	-119.798950	51.230858	-20.375221
2217.791534	-118.688477	51.347748	-20.141438
2217.794972	-118.045586	50.938633	-19.790768
2217.798318	-116.701347	50.529514	-19.440094
2217.801634	-115.707771	49.535942	-18.972530
2217.805017	-115.006424	50.354179	-18.212738
2217.808383	-114.305084	49.535942	-17.628284
2217.811675	-113.486855	49.243717	-17.219173
2217.815024	-112.493279	49.419052	-16.517826
2217.818351	-111.499710	48.717709	-15.641144
2217.821719	-111.207474	48.659264	-16.167156
2217.825027	-110.739914	47.841030	-15.115135
2217.828353	-109.220337	48.074810	-14.647575
2217.831719	-108.226768	47.841030	-14.413792
2217.835127	-108.343658	47.431911	-14.647575
2217.838426	-107.466972	47.782585	-14.296902
2217.841791	-107.233192	47.899475	-13.829338
2217.845126	-106.999413	47.724136	-13.478668
2217.848413	-106.882523	47.373466	-13.654003
2217.851736	-106.882523	46.964348	-13.303333
2217.855039	-105.830505	47.081238	-13.127995
2217.858396	-105.538284	47.198132	-13.011105
2217.861760	-105.888954	47.081238	-13.011105
2217.865091	-105.655174	46.730568	-13.537113
2217.868429	-105.538284	47.431911	-13.127995
2217.871733	-105.304504	47.022793	-13.770893
2217.875131	-106.122734	46.964348	-13.303333
2217.878502	-106.181175	47.315022	-13.361778
2217.881865	-106.707191	47.139687	-13.478668
2217.885229	-106.473404	47.022793	-14.180012
2217.888576	-106.356514	47.548801	-14.238457
2217.891909	-107.057861	48.600819	-13.829338
2217.895325	-107.116302	47.899475	-14.939800
2217.898745	-107.408531	48.133255	-15.348919
2217.902041	-107.174751	47.841030	-15.348919
2217.905387	-107.350082	48.016365	-15.232029
2217.908708	-107.759201	47.957920	-15.699593
2217.912037	-108.869659	48.542374	-14.998245
2217.915377	-108.226768	48.776154	-15.641144
2217.918759	-108.402100	48.308590	-16.167156
2217.922103	-108.577438	48.542374	-15.933376
2217.925455	-108.577438	49.243717	-15.991817
2217.928797	-109.045006	49.068382	-16.400936
2217.932191	-109.278786	49.185272	-16.400936
2217.935496	-109.571007	49.652836	-15.933376
2217.938841	-110.155464	49.828171	-15.816483
2217.942203	-110.038567	49.828171	-15.991817
2217.945521	-110.389252	50.529514	-16.693161
2217.948836	-111.090591	50.763294	-16.693161
2217.952229	-111.791939	51.172413	-16.634720
2217.955527	-111.908821	51.698421	-17.160725
2217.958899	-111.675041	52.107540	-17.043835
2217.962201	-112.551727	52.224430	-17.569843
2217.965519	-112.843948	52.516655	-17.862068
2217.968915	-113.779068	52.282875	-17.219173
2217.972249	-113.720634	52.575100	-18.329632
2217.975557	-114.246635	53.101109	-17.862068
2217.978849	-115.415543	53.451782	-18.212738
2217.982256	-116.467560	53.802452	-19.498535
2217.985572	-117.285789	54.094681	-19.440094
2217.988949	-118.454697	54.971359	-19.732319
2217.992218	-119.097603	55.088249	-20.433666
2217.995624	-120.149612	55.438923	-20.609001
2217.998910	-121.493866	55.848042	-21.777908
2218.002252	-122.370544	56.490940	-21.777908
2218.006003	-123.481003	57.542953	-23.414379
2218.009378	-125.585037	57.659843	-23.998829
2218.012309	-126.461716	58.887199	-25.109295
2218.015661	-127.630615	59.237873	-25.752190
2218.018959	-130.026886	60.114548	-26.511982
2218.022374	-130.202225	60.699009	-27.271770
2218.025681	-132.715378	61.809467	-28.557568
2218.029442	-134.293396	62.569260	-30.486263
2218.032767	-136.222092	62.978374	-31.596729
2218.036144	-137.566330	64.030388	-32.882526
2218.039509	-138.852142	64.556404	-33.583874
2218.042822	-140.488602	65.374634	-34.460552
2218.046133	-142.651077	66.777328	-36.155468
2218.049557	-144.521332	67.770889	-37.265926
2218.052860	-146.683823	68.939796	-38.785511
2218.056258	-147.677383	69.524261	-39.720638
2218.059669	-149.255417	70.400932	-40.480419
2218.063420	-151.067215	71.277618	-42.876682
2218.066751	-152.995911	71.803619	-43.636471
2218.070076	-154.690811	73.673874	-44.104031
2218.073415	-156.502625	74.258324	-45.272938
2218.076818	-158.197556	75.777908	-47.669201
2218.080083	-160.126236	77.005257	-48.312099
2218.083412	-162.756287	77.706604	-50.182354
2218.086746	-164.217422	78.758621	-51.059032
2218.090075	-166.029221	80.453537	-53.104618
2218.093411	-168.659256	80.921097	-54.215076
2218.096746	-170.120392	82.440681	-56.085331
2218.100081	-172.575089	83.551140	-57.721806
2218.103411	-174.796021	85.538277	-59.475163
2218.106746	-177.016953	86.999413	-61.579197
2218.110076	-180.289886	87.642319	-63.274105
2218.113409	-183.095261	88.928116	-65.728806
2218.116744	-185.549973	90.564583	-68.125076
2218.120104	-188.706024	92.084160	-71.164230
2218.123409	-191.978958	94.188194	-72.859146
2218.126741	-193.907654	96.116890	-76.599655
2218.130071	-198.291061	97.694916	-79.229691
2218.133401	-201.096436	99.214493	-82.736420
2218.136737	-204.544708	100.558739	-86.360031
2218.140068	-206.882523	102.487434	-91.269440
2218.143400	-210.856812	104.591461	-95.068390
2218.146755	-214.655746	106.227936	-99.101105
2218.150098	-218.805374	108.390411	-103.718307
2218.153406	-222.838104	109.676216	-107.692581
2218.156739	-226.870834	111.780251	-112.835770
2218.160071	-231.020462	113.475151	-117.336060
2218.163418	-234.293411	115.988312	-123.063721
2218.166736	-239.495026	118.384575	-128.148453
2218.170074	-241.540619	120.137932	-134.109879
2218.173406	-246.800705	122.651077	-140.012863
2218.176733	-250.248978	124.521339	-146.441849
2218.180066	-254.515503	127.911163	-151.935715
2218.183404	-258.957336	130.132095	-159.592056
2218.186735	-263.165405	132.236130	-166.547043
2218.190067	-267.607239	134.340149	-172.508484
2218.193401	-271.113953	137.028641	-179.521927
2218.196735	-275.380493	139.015778	-186.476929
2218.200063	-279.763885	141.470474	-193.782593
2218.203400	-283.679718	143.983643	-200.620682
2218.206737	-287.946228	146.263000	-207.809479
2218.210058	-291.686737	149.126831	-215.582718
2218.213398	-295.661011	152.399765	-223.648178
2218.216733	-299.576843	154.094681	-232.531876
2218.220072	-303.200470	156.666275	-240.305099
2218.223397	-306.648743	159.179428	-249.656357
2218.226732	-311.032135	161.751022	-259.066040
2218.230063	-316.175323	164.965515	-269.001740
2218.233392	-319.623596	166.952652	-278.411438
2218.236726	-323.188782	169.465820	-290.158966
2218.240061	-325.877258	172.388077	-300.153107
2218.243393	-329.500885	174.141434	-312.251312
2218.246730	-334.293396	176.362350	-323.648163
2218.250095	-337.624786	178.349503	-336.330780
2218.253392	-341.365295	181.037979	-349.364105
2218.257151	-343.469330	183.784927	-362.748077
2218.260489	-347.560486	185.304504	-376.248962
2218.263816	-350.716522	187.817657	-391.795441
2218.267193	-352.586792	189.395676	-407.049652
2218.270507	-355.216827	189.921692	-422.303894
2218.273835	-356.853302	191.967270	-439.369965
2218.277149	-358.431335	193.486847	-457.604889
2218.280487	-359.717133	194.831100	-474.203400
2218.283811	-360.652252	195.064880	-492.672119
2218.287149	-360.769135	195.240204	-510.907043
2218.290484	-361.119812	195.473984	-529.258911
2218.293818	-360.593811	195.649323	-549.013428
2218.297144	-359.424896	195.883102	-568.709534
2218.300509	-356.970184	195.240204	-589.106934
2218.303840	-355.041504	193.077728	-609.796631
2218.307177	-351.768555	192.084152	-629.375793
2218.310571	-347.735840	190.389252	-649.890137
2218.313819	-343.644653	188.402100	-670.813538
2218.317150	-338.559906	186.122742	-689.749878
2218.320475	-331.721802	183.025131	-710.439453
2218.323851	-326.695496	180.044418	-730.135559
2218.327144	-317.402679	176.713043	-751.000610
2218.330479	-310.155457	173.089417	-769.878357
2218.333813	-301.914673	168.706024	-789.925171
2218.337182	-292.388062	165.257736	-808.510742
2218.340496	-281.984802	160.640564	-827.447144
2218.343839	-271.873749	155.497375	-845.740479
2218.347221	-259.600220	150.061951	-863.332520
2218.350903	-248.787842	144.392746	-880.515503
2218.354270	-235.228531	139.015778	-897.230835
2218.357563	-221.493851	132.879028	-913.127991
2218.360917	-208.168320	126.333138	-928.616028
2218.364255	-193.030975	119.436584	-942.935059
2218.367660	-177.484512	113.007591	-955.617798
2218.370988	-162.113388	105.117477	-968.651123
2218.374276	-145.281113	97.519585	-979.755676
2218.377583	-127.864410	89.395676	-991.678467
2218.380900	-110.038567	81.154884	-1002.958496
2218.384251	-91.978958	72.621857	-1010.731689
2218.387589	-73.334892	63.270603	-1019.089355
2218.391018	-54.281708	54.036236	-1026.336670
2218.394298	-35.053185	45.152542	-1030.953735
2218.397664	-15.357101	34.866161	-1036.389282
2218.400895	6.033897	24.988895	-1039.253052
2218.404228	25.788429	15.053185	-1041.064819
2218.407555	46.302750	4.533022	-1040.188232
2218.410934	66.466393	-5.928697	-1039.545288
2218.414267	86.863823	-16.098186	-1038.902344
2218.417656	107.261246	-26.326126	-1032.940918
2218.420974	128.243134	-35.852718	-1027.271729
2218.424297	147.705429	-45.788425	-1020.784424
2218.427555	167.050842	-55.315018	-1011.491455
2218.431334	186.104034	-65.075394	-1001.672729
2218.434678	204.105194	-73.783752	-991.561646
2218.438076	221.697250	-82.609001	-978.937439
2218.441002	237.535934	-91.609589	-965.319702
2218.444330	253.608429	-98.623024	-949.714722
2218.448058	267.576843	-106.980721	-934.635925
2218.451003	282.480408	-114.461723	-918.505005
2218.454686	295.689056	-120.832268	-899.802490
2218.458121	308.021027	-126.501465	-883.788391
2218.461448	319.476318	-132.345993	-864.326111
2218.464778	330.405609	-137.138504	-845.798950
2218.468159	339.113953	-141.112808	-825.927551
2218.471529	348.640564	-145.729980	-806.582031
2218.474841	355.887787	-149.821167	-786.301636
2218.478188	362.316772	-152.743423	-767.248352
2218.481491	368.044403	-154.789001	-747.961426
2218.484860	373.830505	-157.769730	-728.323792
2218.488175	378.739929	-160.165985	-707.926392
2218.491484	383.123322	-162.445358	-689.223877
2218.494831	385.578033	-163.789597	-671.398010
2218.498222	388.617187	-165.075394	-651.292786
2218.501567	389.961426	-165.718292	-633.174744
2218.504921	391.481018	-166.653427	-613.887756
2218.508258	391.831665	-168.056107	-595.477478
2218.511638	392.006989	-168.056107	-577.067200
2218.514937	392.708374	-168.991226	-559.241394
2218.518275	392.649933	-168.173004	-540.305054
2218.521651	392.065460	-167.763885	-523.239014
2218.524959	389.610748	-167.822327	-505.997681
2218.528242	388.091156	-166.945648	-488.522461
2218.531583	385.811829	-166.770309	-471.047333
2218.534915	383.181763	-165.776749	-454.565765
2218.538287	379.499695	-166.127411	-436.506134
2218.541632	376.518982	-164.900055	-419.615417
2218.544980	373.713623	-163.614258	-404.185852
2218.548373	370.440674	-162.562241	-389.516052
2218.551690	366.057281	-161.334900	-373.502045
2218.555030	361.557007	-159.639984	-358.598450
2218.558386	356.706024	-157.769730	-344.513153
2218.561765	351.913513	-156.250137	-330.603149
2218.565079	347.120972	-154.672119	-315.933350
2218.568427	342.211578	-153.327881	-302.374054
2218.571787	336.308594	-151.457626	-289.925171
2218.575116	332.275848	-149.178253	-277.008759
2218.578452	326.022217	-147.950897	-265.378143
2218.581797	321.288147	-146.548218	-254.565750
2218.585171	315.618927	-143.625946	-243.987137
2218.588490	310.592651	-142.340149	-233.116287
2218.591795	305.507874	-140.294571	-222.888382
2218.595129	299.371124	-138.658096	-213.829330
2218.598439	294.637054	-136.495621	-205.530106
2218.601877	289.084747	-134.157806	-197.756866
2218.605179	283.766235	-131.936890	-189.165405
2218.608508	279.090576	-130.358856	-181.567505
2218.611888	274.298096	-128.079483	-174.437180
2218.615219	269.973114	-125.741669	-167.949738
2218.618527	264.713043	-124.280533	-161.170090
2218.621821	260.212738	-122.468735	-155.500885
2218.625175	255.946228	-120.423141	-149.656357
2218.628526	251.679718	-118.611336	-144.220932
2218.631839	247.763885	-116.916420	-138.610184
2218.635596	243.205154	-115.279953	-133.525421
2218.638975	239.172424	-112.533020	-129.434265
2218.642268	235.841019	-110.604324	-125.109299
2218.645647	231.399185	-109.084747	-119.440094
2218.648978	228.476913	-107.331383	-116.108719
2218.652262	224.736420	-106.337814	-112.368210
2218.655601	221.229675	-103.883110	-108.160141
2218.658889	217.196945	-102.714203	-103.835190
2218.662330	214.157806	-100.493279	-100.620697
2218.665666	210.767975	-99.382820	-96.997086
2218.668985	206.969025	-98.330795	-92.555222
2218.672371	203.579193	-96.460548	-89.749847
2218.675722	200.189362	-95.817650	-86.301575
