time (s)	magX	magY	magZ
1662.229426	-307.642303	225.690231	-304.478058
1662.232776	-311.558136	228.612503	-315.816467
1662.236124	-313.311523	232.294571	-328.265320
1662.239448	-317.052032	235.742844	-340.831085
1662.242756	-319.156036	239.424911	-353.572174
1662.246089	-323.188782	242.756287	-366.722382
1662.249431	-324.299225	246.438339	-380.164795
1662.252749	-326.111053	249.652832	-395.419067
1662.256103	-327.981293	253.217987	-410.264160
1662.259425	-330.026886	256.315613	-424.992401
1662.262760	-330.494446	258.887207	-440.421967
1662.266084	-331.780243	261.926361	-457.955597
1662.269440	-332.364685	264.497986	-475.196960
1662.272791	-333.241394	267.069550	-492.613647
1662.276111	-332.949158	269.232025	-509.153687
1662.279430	-332.656921	270.284058	-527.973145
1662.282755	-331.604889	271.686737	-545.565186
1662.286101	-329.851562	272.972534	-565.962585
1662.289842	-327.864410	273.732330	-584.372925
1662.292798	-325.818817	274.492126	-603.893616
1662.296531	-322.896545	273.673889	-623.239014
1662.299938	-320.441864	272.914093	-644.104065
1662.303260	-316.642883	272.504974	-663.683228
1662.306578	-311.733490	269.758057	-683.554626
1662.309847	-307.350067	268.355377	-702.841614
1662.313175	-301.447083	266.075989	-723.414368
1662.316523	-295.251923	263.036835	-743.636475
1662.319862	-287.712433	259.530121	-763.741699
1662.323200	-280.114532	255.322037	-784.022217
1662.326615	-271.172424	251.113968	-803.250671
1662.329918	-262.990082	246.379883	-823.005310
1662.333261	-252.820572	242.639389	-842.935059
1662.336546	-243.001770	236.619537	-861.345398
1662.339836	-231.312668	231.067215	-880.106323
1662.343195	-219.740509	224.462875	-897.698364
1662.346531	-206.473404	217.332565	-915.933289
1662.349864	-192.504974	210.611328	-932.239624
1662.353242	-178.536530	202.955002	-947.669189
1662.356589	-162.990067	195.357101	-964.676758
1662.359904	-147.151382	187.174744	-977.359375
1662.363171	-130.436005	178.583282	-992.555176
1662.366508	-113.194626	169.524246	-1005.939209
1662.370279	-94.433662	160.640564	-1017.160645
1662.373224	-76.607834	150.704849	-1029.551147
1662.376595	-58.197544	140.827576	-1039.136230
1662.379960	-38.501461	131.008774	-1046.558716
1662.383241	-18.396259	119.495033	-1055.150269
1662.386951	2.176505	110.026886	-1062.163574
1662.390286	22.223263	97.987144	-1066.488647
1662.393624	41.860901	86.940964	-1071.397949
1662.397018	62.141441	75.661011	-1071.924072
1662.400351	82.246643	64.264175	-1074.086426
1662.403716	102.819405	51.990646	-1073.969604
1662.407025	123.158386	40.535358	-1072.157715
1662.410354	142.562241	28.612507	-1069.293945
1662.413791	162.082993	16.864990	-1064.384521
1662.417070	180.843948	4.533022	-1057.955566
1662.420392	199.429565	-6.922268	-1051.351196
1662.423739	216.612518	-17.851547	-1041.181763
1662.427041	233.561661	-29.540619	-1032.823975
1662.430372	249.108124	-40.703682	-1021.602539
1662.433741	265.297485	-51.048512	-1009.212158
1662.437064	280.668640	-62.562248	-996.237305
1662.440415	294.637054	-72.439514	-982.736389
1662.443748	307.085907	-81.907654	-966.722412
1662.447050	320.586792	-91.258911	-950.708374
1662.450374	332.042084	-99.675049	-934.518982
1662.453678	342.796021	-108.091179	-916.517822
1662.457116	352.907074	-116.215073	-897.172424
1662.460442	361.966095	-123.286957	-880.457031
1662.463772	369.739319	-130.534180	-861.053162
1662.467159	378.681488	-136.378738	-843.110474
1662.470448	385.344238	-141.872589	-822.420776
1662.473827	390.604340	-147.424896	-800.796021
1662.477118	396.565765	-152.217407	-780.164795
1662.480451	401.007599	-156.425476	-761.579163
1662.483844	404.222107	-159.932205	-740.538879
1662.487149	408.371704	-163.906494	-719.557007
1662.490469	411.644623	-166.711868	-700.503784
1662.494241	414.683807	-168.991226	-679.872620
1662.497541	414.742249	-170.978378	-660.176514
1662.500880	416.904724	-171.971939	-639.603760
1662.504251	416.495605	-174.485107	-620.083008
1662.507555	416.963196	-175.537109	-599.743958
1662.510968	415.502045	-176.881363	-580.164795
1662.514270	415.034485	-177.056702	-560.001160
1662.517600	413.339539	-176.296906	-541.766235
1662.520923	411.995361	-176.296906	-523.297485
1662.524221	408.956177	-177.056702	-504.711853
1662.527541	406.267670	-177.232025	-486.535339
1662.530845	403.111633	-176.355347	-469.878418
1662.534283	399.955597	-176.413803	-453.104584
1662.537591	396.039764	-175.361771	-434.928131
1662.540934	392.299255	-174.660431	-418.271149
1662.544331	387.389832	-174.543533	-402.841614
1662.547671	384.701355	-172.907074	-387.879608
1662.550991	378.447693	-171.329041	-372.157806
1662.554447	373.713623	-169.926361	-358.189362
1662.557783	369.037994	-169.225021	-344.220917
1662.561057	364.596130	-167.413208	-330.778473
1662.564419	359.511414	-167.062531	-317.511383
1662.567761	353.608429	-164.958496	-304.945618
1662.571050	347.646973	-164.081833	-292.964325
1662.574418	342.562256	-162.036240	-281.859711
1662.577738	336.776154	-160.691986	-270.521332
1662.581101	330.697845	-159.172424	-259.358246
1662.584432	325.729980	-158.061966	-249.656357
1662.587744	319.300995	-155.315018	-240.305099
1662.591074	313.982483	-153.912338	-230.486282
1662.594467	308.254822	-152.626541	-220.901230
1662.597818	303.988312	-150.230270	-212.718872
1662.601135	298.202209	-148.418457	-204.770309
1662.604479	293.760376	-147.366455	-196.763306
1662.607843	287.857391	-145.087082	-189.457642
1662.611175	282.947968	-142.690826	-181.392181
1662.614466	277.804779	-141.112808	-174.670959
1662.617819	273.246063	-138.599655	-168.300415
1662.621126	268.570435	-136.261841	-161.871429
1662.624467	263.777893	-134.274704	-156.085327
1662.627781	258.985382	-132.462891	-150.065460
1662.631494	255.244873	-131.177094	-144.104034
1662.634871	250.277039	-128.780838	-138.551727
1662.638175	245.601395	-126.326126	-133.934540
1662.641121	241.860901	-124.163651	-129.200485
1662.644878	238.120392	-122.293404	-123.881943
1662.648235	233.620102	-120.890701	-119.907654
1662.651538	230.054932	-118.669785	-114.939804
1662.654925	227.775589	-117.325546	-110.848618
1662.658265	222.983063	-115.046165	-106.874344
1662.661614	218.891861	-112.942139	-102.315613
1662.664905	215.151367	-111.597900	-98.282883
1662.668310	211.644653	-109.552315	-94.776169
1662.671603	208.897720	-107.798950	-90.801880
1662.674966	205.741669	-106.630043	-88.113388
1662.678377	201.942719	-104.292229	-83.905319
1662.681702	198.611343	-103.473984	-80.632385
1662.685022	195.163071	-101.954414	-77.651672
1662.688386	191.656342	-100.376396	-74.787842
1662.691698	189.260086	-98.739922	-70.638214
1662.695105	185.928696	-97.395676	-69.177094
1662.698454	183.240204	-95.992981	-66.196381
1662.701798	179.850388	-95.350090	-63.917011
1662.705114	177.103439	-94.356514	-61.696087
1662.708441	175.057861	-92.544708	-59.124493
1662.711740	171.668030	-91.200470	-56.845119
1662.715094	168.921097	-90.148453	-54.039745
1662.718392	166.817062	-89.388664	-53.279949
1662.721757	163.777908	-88.511978	-50.474575
1662.725056	161.264755	-88.102867	-48.954998
1662.728376	158.868500	-87.050850	-47.084743
1662.731802	156.530685	-86.057274	-45.272938
1662.735170	153.959091	-84.654587	-44.688488
1662.738484	151.796616	-84.128578	-42.642902
1662.741834	150.277023	-83.193451	-41.240215
1662.745158	148.640564	-81.966103	-39.720638
1662.748476	146.945648	-81.206314	-38.902401
1662.751808	145.075409	-80.738747	-36.798359
1662.755068	143.380478	-79.803619	-36.973698
1662.758437	142.445358	-78.868500	-35.571011
1662.761735	139.581528	-77.991821	-34.051434
1662.765108	138.587967	-76.998245	-32.940968
1662.768864	137.828171	-76.355354	-32.707188
1662.772275	135.373474	-76.296906	-31.070721
1662.775612	134.555237	-74.660431	-30.427822
1662.778952	133.035660	-74.017532	-29.726482
1662.782277	131.808304	-73.433075	-27.914669
1662.785613	130.580948	-73.023964	-28.206894
1662.788951	129.528931	-71.913498	-27.739330
1662.792320	128.535370	-71.036819	-26.921097
1662.795618	127.249557	-70.277031	-25.985973
1662.798941	125.963776	-70.393921	-25.401520
1662.802272	124.970200	-69.867920	-24.817066
1662.805614	123.275284	-68.991234	-22.771481
1662.808938	122.223267	-68.815903	-23.005264
1662.812274	120.995911	-67.997665	-22.187027
1662.815606	120.469894	-67.413216	-21.602573
1662.818947	120.119232	-66.945641	-21.544125
1662.822277	118.599655	-66.419640	-20.492111
1662.825648	117.606079	-66.478081	-20.141438
1662.828940	116.963181	-66.302750	-19.206314
1662.832278	116.144943	-65.718292	-19.556984
1662.835631	115.209816	-65.309174	-18.504971
1662.838943	113.982468	-65.016953	-18.738750
1662.842273	113.339561	-64.432495	-17.686733
1662.845610	112.521332	-64.783173	-16.926941
1662.848938	111.819992	-64.374046	-17.394505
1662.852276	111.293983	-64.140266	-16.810051
1662.855606	110.358856	-63.789597	-16.751610
1662.858939	110.534187	-64.081825	-15.874928
1662.862268	109.365280	-63.848045	-15.465809
1662.865610	108.663940	-63.497375	-15.816483
1662.868942	108.196373	-63.964935	-15.641144
1662.872273	107.611923	-63.380478	-14.764465
1662.875601	107.611923	-63.497375	-14.939800
1662.878940	107.085915	-62.912918	-15.407364
1662.882267	106.793686	-62.912918	-15.348919
1662.885605	107.085915	-62.562248	-14.939800
1662.888931	106.384575	-63.146698	-14.764465
1662.892265	106.793686	-63.263588	-14.530682
1662.895607	106.092346	-63.029808	-14.764465
1662.899360	105.975456	-63.029808	-14.004677
1662.902691	106.150787	-62.620689	-14.647575
1662.906025	106.033897	-63.497375	-14.706020
1662.909390	106.793686	-63.322037	-15.056690
1662.912688	106.735237	-62.854469	-14.589130
1662.916018	106.150787	-62.854469	-15.465809
1662.919354	106.676804	-63.438927	-15.232029
1662.922748	106.735237	-62.796028	-15.115135
1662.926063	106.969017	-63.438927	-15.348919
1662.929387	106.676804	-63.380478	-15.115135
1662.932777	107.085915	-63.614265	-15.290474
1662.936029	107.261246	-63.906487	-15.407364
1662.939400	107.202805	-63.731155	-15.407364
1662.942693	107.319695	-64.023376	-15.115135
1662.946018	108.254822	-64.081825	-15.173580
1662.949357	107.845711	-63.848045	-14.589130
1662.952696	108.254822	-64.257156	-15.933376
1662.956021	109.657509	-64.724724	-15.874928
1662.959379	109.540627	-65.016953	-16.050266
1662.962717	108.897720	-65.133842	-16.050266
1662.966043	109.949738	-65.309174	-16.459381
1662.969393	110.767967	-66.010521	-16.284046
1662.972697	111.410873	-66.653419	-16.517826
1662.976056	111.235535	-66.711861	-16.751610
1662.979351	111.469315	-67.062531	-16.576271
1662.982696	112.112221	-67.588547	-17.862068
1662.986018	113.105782	-67.354767	-17.920517
1662.989346	113.514908	-68.348335	-18.446522
1662.993126	114.040909	-68.523674	-19.440094
1662.996049	114.274689	-69.108124	-19.030975
1662.999873	115.209816	-69.984810	-19.907658
1663.003173	115.502045	-70.569260	-20.141438
1663.006434	115.911156	-71.387497	-20.316776
1663.009768	117.021629	-71.445938	-20.609001
1663.013115	118.015205	-73.023964	-21.310345
1663.016467	119.710114	-73.140854	-21.485683
1663.019824	119.417892	-74.134422	-23.472824
1663.023176	120.469894	-74.718880	-23.472824
1663.026512	121.931030	-75.653999	-23.706608
1663.029777	122.983047	-76.530685	-24.758621
1663.033101	124.385742	-76.998245	-26.336643
1663.036437	125.496201	-77.290474	-27.037987
1663.039798	127.191116	-78.400932	-27.622440
1663.043146	128.184692	-80.037407	-28.557568
1663.046512	129.938049	-80.329636	-29.375809
1663.049867	131.165405	-80.680305	-30.544712
1663.053216	132.451202	-81.732323	-31.304501
1663.056437	134.496780	-82.258324	-32.824078
1663.059765	135.782578	-83.953247	-33.759205
1663.063115	137.652832	-84.537697	-34.694332
1663.066461	138.938644	-85.765053	-35.395672
1663.069792	140.516663	-87.459969	-37.207485
1663.073187	142.153122	-88.161308	-38.727062
1663.076509	143.672699	-89.154884	-39.603741
1663.079801	145.601395	-90.499123	-40.831097
1663.083546	147.354767	-91.609589	-42.292233
1663.086893	149.867920	-92.427818	-44.104031
1663.090281	150.510803	-93.830513	-44.688488
1663.093609	152.322617	-95.350090	-46.208065
1663.096566	154.894211	-96.518997	-48.136761
1663.100284	156.121567	-98.447693	-49.481007
1663.103632	158.167160	-99.499702	-51.117481
1663.106970	160.037415	-100.960838	-53.513737
1663.110372	162.492111	-102.831093	-54.624195
1663.113698	164.479248	-103.824661	-56.903568
1663.117000	166.232620	-105.811813	-59.066044
1663.120307	168.862656	-107.214500	-61.696087
1663.123673	171.784927	-109.260086	-63.800121
1663.127023	173.304504	-111.714783	-65.670380
1663.130398	175.759201	-113.760376	-68.125076
1663.133693	178.155472	-116.156639	-70.930450
1663.137012	181.136169	-117.383980	-73.618942
1663.140376	184.000000	-119.604912	-76.833435
1663.143711	186.162476	-122.118057	-79.814133
1663.147021	189.435425	-123.754532	-82.502625
1663.150450	192.123901	-125.507889	-86.944473
1663.153757	194.929276	-128.663940	-90.626526
1663.157054	198.494446	-130.709534	-93.315018
1663.160372	201.708939	-133.398010	-97.523087
1663.163668	205.157211	-135.794266	-101.848053
1663.167035	208.430161	-137.489182	-106.056107
1663.170381	211.761551	-140.353012	-110.381058
1663.173745	214.625366	-143.392166	-115.407364
1663.177026	218.482758	-145.320877	-120.433670
1663.180359	222.164810	-148.184677	-125.167740
1663.183715	226.197540	-151.106949	-130.836945
1663.187046	229.762711	-153.737000	-135.804794
1663.190354	233.269440	-156.600815	-142.350677
1663.193769	237.126831	-159.464645	-148.312103
1663.197066	240.692001	-162.445358	-154.741089
1663.200384	245.192291	-164.549393	-160.468735
1663.203703	249.692566	-167.530090	-167.774399
1663.207528	253.374634	-170.803040	-174.612503
1663.210863	256.939789	-173.082413	-181.567505
1663.214176	260.914093	-176.413803	-188.464050
1663.217520	264.537689	-179.803619	-196.295746
1663.220819	269.271759	-182.550552	-204.828766
1663.224144	272.720062	-186.407944	-212.543549
1663.227440	276.343658	-189.271774	-220.667435
1663.230815	280.668640	-193.479843	-230.252487
1663.234168	285.052032	-196.928116	-238.785507
1663.237519	288.617187	-200.025711	-248.253677
1663.240856	292.357697	-203.298660	-257.546478
1663.244217	296.857971	-206.571594	-268.651062
1663.247535	300.072449	-211.305679	-278.469879
1663.250893	304.046753	-214.753952	-290.217407
1663.254237	308.254822	-218.377548	-301.672699
1663.257546	310.534210	-222.118057	-313.770874
1663.260886	315.209839	-226.209229	-325.693756
1663.264181	317.898315	-230.475754	-339.136169
1663.267522	321.521912	-233.982452	-352.111053
1663.270973	324.093506	-237.196960	-366.196381
1663.274259	326.489777	-241.521927	-380.690796
1663.277577	329.295135	-244.911758	-396.237274
1663.280915	332.158966	-248.476929	-410.848602
1663.284279	333.970764	-252.100540	-426.804199
1663.287651	336.308594	-255.198135	-444.279388
1663.291013	338.997101	-258.997070	-460.819366
1663.294326	341.159576	-261.159546	-479.463501
1663.297652	342.153137	-264.607819	-498.516663
1663.300965	342.679138	-268.056091	-517.043823
1663.304271	344.490936	-271.504364	-535.629456
1663.307592	344.549377	-272.907074	-554.565735
1663.310913	344.783173	-275.420197	-575.313843
1663.314341	344.432495	-277.348907	-595.886597
1663.317640	343.555817	-278.576263	-616.868469
1663.320978	342.153137	-281.147858	-638.902344
1663.324372	339.698425	-281.849182	-660.410278
1663.327718	337.009949	-282.842773	-680.398621
1663.331016	334.263000	-282.550537	-701.205139
1663.334355	330.931610	-283.661011	-722.946838
1663.337719	326.197540	-283.777893	-744.279358
1663.341034	321.405029	-282.550537	-765.261230
1663.344376	316.086487	-281.732300	-787.587341
1663.347679	309.715942	-281.206299	-808.335510
1663.351070	302.001160	-279.102264	-830.486267
1663.354364	294.111053	-278.167145	-851.585022
1663.357736	284.233795	-276.179993	-871.631836
1663.361122	275.116302	-273.959076	-891.561707
1663.364426	265.005249	-270.335449	-910.790161
1663.367754	253.549957	-267.646973	-929.141968
1663.371558	241.802460	-265.016937	-946.850952
1663.374847	229.879608	-260.107513	-965.202820
1663.378181	216.144958	-256.600800	-981.859680
1663.381497	202.118073	-252.042099	-997.172485
1663.384905	187.857391	-246.723541	-1012.075928
1663.388254	172.427811	-240.703690	-1026.570435
1663.391604	156.121567	-235.092941	-1039.136230
1663.394971	139.990646	-229.189957	-1049.773193
1663.398273	122.515488	-221.708954	-1061.579224
1663.401583	104.338989	-214.344818	-1071.397949
1663.404940	86.922264	-206.922256	-1079.755737
1663.408296	68.570427	-198.739929	-1086.301636
1663.411669	49.458797	-189.154877	-1091.620117
1663.415019	30.347164	-180.563416	-1095.652832
1663.417949	11.527762	-170.101685	-1098.984253
1663.421660	-8.285213	-159.172424	-1100.796021
1663.424990	-28.273525	-149.295151	-1100.328491
1663.428319	-48.203388	-137.898300	-1100.737549
1663.431700	-67.782585	-126.618347	-1096.295776
1663.435074	-87.361771	-115.046165	-1094.483887
1663.438375	-106.590302	-102.772644	-1089.165405
1663.441688	-125.234367	-90.323792	-1081.509033
1663.445011	-144.287552	-77.874931	-1072.508423
1663.448410	-162.697830	-64.900063	-1064.326050
1663.451739	-180.815887	-52.275864	-1053.163086
1663.455090	-198.583282	-39.476330	-1042.000000
1663.458462	-214.831085	-27.144363	-1027.739380
1663.462210	-230.669769	-15.104617	-1014.530640
1663.465547	-246.157806	-2.947984	-999.744019
1663.468925	-259.541809	9.442431	-983.671570
1663.472212	-273.685577	21.014610	-968.125061
1663.475571	-286.718872	32.060783	-951.234314
1663.478882	-300.687317	42.288719	-933.233154
1663.482220	-312.376404	52.458210	-914.939758
1663.485544	-323.305664	62.803040	-898.165955
1663.488874	-333.358276	71.978958	-879.112793
1663.492206	-342.884857	79.927528	-859.650513
1663.495542	-351.242554	88.811226	-840.071289
1663.498874	-358.372864	96.818237	-821.427246
1663.502211	-366.847473	104.240791	-801.497375
1663.505544	-373.860901	111.020454	-781.742859
1663.508878	-379.822327	116.923439	-762.046753
1663.512209	-383.971954	123.352417	-741.473999
1663.515542	-388.998230	129.255402	-722.070129
1663.518867	-393.206299	134.398605	-702.432495
1663.522205	-395.251923	139.015778	-684.781982
1663.525538	-399.635315	143.106964	-665.144348
1663.528871	-401.096436	147.022797	-645.565186
1663.532206	-402.557587	150.178833	-627.330200
1663.535540	-404.252472	153.159561	-608.277039
1663.538921	-405.070740	156.257156	-589.457581
1663.542201	-404.953827	158.828751	-572.800659
1663.545543	-404.252472	161.751022	-554.156616
1663.548875	-404.953827	163.329056	-536.739929
1663.552202	-401.563995	164.790176	-519.557007
1663.555533	-401.330231	166.777328	-502.666260
1663.558869	-398.992401	168.121567	-486.009338
1663.562239	-396.070129	169.758026	-469.293976
1663.565535	-394.258331	170.342499	-453.630615
1663.568869	-391.277618	170.634720	-437.324371
1663.572201	-387.946228	172.271194	-422.128571
1663.575530	-385.316193	172.037415	-406.991241
1663.578862	-381.108124	172.738754	-392.613647
1663.582202	-377.309174	172.563416	-379.171234
1663.585532	-372.575104	171.978958	-365.085907
1663.588869	-367.139679	172.446518	-352.520142
1663.592198	-364.042084	172.037415	-338.902405
1663.595531	-359.366455	171.745178	-327.330200
1663.598861	-353.931030	170.634720	-314.530670
1663.602197	-349.956757	170.225601	-303.484497
1663.605551	-344.053772	168.706024	-293.022797
1663.608919	-340.780823	167.654007	-281.509064
1663.612206	-335.696106	166.660431	-270.930450
1663.615528	-330.669769	165.900650	-261.228516
1663.618862	-326.286377	164.381058	-251.760361
1663.622198	-321.435425	162.101700	-243.402695
1663.625533	-315.473999	160.757462	-234.577438
1663.628865	-311.733490	159.237869	-225.752182
1663.632192	-306.356506	157.309174	-218.621857
1663.635964	-301.973114	155.964935	-210.673294
1663.639281	-297.531250	153.218002	-203.426086
1663.642612	-293.615417	151.523087	-196.003510
1663.645954	-288.355347	150.003510	-189.106949
1663.649333	-283.971954	147.607239	-182.794861
1663.652647	-278.887207	146.263000	-177.125656
1663.655975	-274.971344	144.042084	-170.755112
1663.659299	-270.938629	142.405609	-165.027466
1663.662611	-266.321472	140.360016	-159.708954
1663.665953	-262.522491	138.840454	-154.331985
1663.669287	-257.203979	136.677963	-149.247223
