time (s)	magX	magY	magZ
1013.927596	-176.900055	111.721802	-59.299824
1013.930926	-178.127411	112.423141	-60.059620
1013.934282	-179.763885	112.130913	-60.760960
1013.937594	-180.932785	113.182938	-62.105198
1013.940957	-182.160141	113.592049	-63.040325
1013.944286	-184.088837	114.059616	-64.326126
1013.947624	-186.485092	114.644058	-65.027466
1013.950936	-186.835770	114.118065	-65.787262
1013.954294	-189.232025	115.170074	-67.657516
1013.957589	-191.336060	115.637634	-69.586212
1013.960929	-192.855637	115.812981	-70.521332
1013.964274	-193.732330	116.631210	-71.456467
1013.968042	-195.544128	117.040321	-72.450027
1013.971372	-197.239044	117.683228	-73.385162
1013.974765	-199.576859	118.209229	-75.664520
1013.978129	-201.037994	119.085922	-77.184113
1013.981433	-202.908249	120.254822	-77.593216
1013.984687	-205.246063	120.897720	-79.580353
1013.988003	-206.648743	121.248390	-81.333725
1013.991353	-208.928116	122.358856	-83.262421
1013.994704	-210.389252	123.469315	-85.541794
1013.998058	-212.201065	125.105782	-87.704269
1014.001426	-214.071320	126.976036	-89.691406
1014.004762	-216.175339	128.378723	-91.737000
1014.008110	-218.863815	129.489182	-94.016373
1014.011350	-220.617187	130.482758	-95.185272
1014.014679	-223.188766	132.645233	-97.756866
1014.018020	-225.117477	133.463486	-100.153137
1014.021387	-226.695511	135.158386	-102.315613
1014.024703	-228.799530	137.496201	-105.237869
1014.028101	-231.955597	138.548218	-107.575684
1014.031450	-233.475159	139.483337	-109.913498
1014.034687	-236.163651	141.821152	-113.654007
1014.038011	-238.501465	143.106964	-116.576279
1014.041371	-241.131516	144.860321	-119.732330
1014.044700	-244.638214	146.204559	-122.654587
1014.048035	-246.859131	147.315018	-126.453537
1014.051428	-249.722977	148.659256	-128.499115
1014.054753	-252.528351	150.178833	-132.239639
1014.058140	-255.625961	151.639969	-136.564590
1014.061769	-258.840454	152.984222	-139.837524
1014.065157	-261.645813	154.211563	-143.870255
1014.068465	-265.561676	155.789597	-148.019882
1014.071854	-270.529510	157.601410	-152.987732
1014.075228	-273.977783	158.361191	-157.546463
1014.078525	-277.776733	159.354752	-162.163651
1014.081831	-281.225006	160.815887	-165.904144
1014.085172	-286.075989	162.043243	-171.456467
1014.088527	-288.822906	163.387482	-176.833450
1014.091842	-292.680298	164.907074	-181.567505
1014.095187	-297.589722	165.666870	-187.528931
1014.098504	-302.148437	166.426651	-193.373474
1014.101873	-304.953827	167.303329	-199.218002
1014.105191	-310.213928	169.173584	-205.530106
1014.108577	-314.246643	170.576279	-211.608414
1014.111926	-318.746948	171.628281	-217.628296
1014.115261	-321.493866	173.498535	-223.648178
1014.118614	-327.221497	174.901215	-230.836960
1014.121939	-331.488037	176.011688	-238.025711
1014.125264	-335.345398	178.057281	-245.448288
1014.128695	-340.137939	179.226181	-253.747513
1014.132018	-343.293976	181.973114	-261.754517
1014.135326	-346.800690	184.135590	-269.293976
1014.138639	-351.710114	185.830505	-277.885437
1014.141944	-355.976624	188.168320	-286.769135
1014.145364	-359.775574	190.272354	-296.120392
1014.148633	-362.990051	192.376389	-305.062531
1014.152005	-368.717712	194.889526	-314.063110
1014.155346	-372.458221	196.467560	-324.524811
1014.158672	-375.672699	198.571594	-334.928101
1014.161972	-379.354767	200.149612	-345.389801
1014.165307	-382.744598	201.902985	-356.319122
1014.169122	-386.543549	204.182343	-367.073059
1014.172052	-390.751617	205.994156	-379.755676
1014.175369	-393.907654	207.455292	-391.853882
1014.179080	-397.998840	208.682648	-403.542938
1014.182422	-400.921112	209.325546	-415.582703
1014.185715	-405.187592	210.377563	-428.615997
1014.189082	-409.921661	210.669785	-443.168915
1014.192385	-412.727051	210.552887	-456.903534
1014.195727	-415.649323	210.845123	-471.865540
1014.199045	-417.987122	210.319107	-485.600220
1014.202379	-422.838074	210.026901	-500.854431
1014.205647	-426.052582	208.741074	-516.868469
1014.208938	-429.150208	207.163055	-532.882507
1014.212356	-432.832245	205.585037	-548.896545
1014.215631	-434.877838	203.481003	-565.962585
1014.218942	-435.754517	201.552307	-582.444214
1014.222682	-437.332550	198.104034	-599.568665
1014.226014	-440.488586	195.590881	-616.810059
1014.229359	-442.417297	192.493286	-634.343689
1014.232638	-442.475769	188.460556	-652.578613
1014.235978	-443.703094	184.369370	-671.456421
1014.239318	-442.826416	179.752197	-689.691406
1014.242694	-441.832855	175.836349	-707.692566
1014.246001	-441.891296	171.336060	-726.628845
1014.249375	-441.073059	165.549973	-745.214478
1014.252697	-438.501465	160.932785	-764.968994
1014.256010	-437.098755	156.081818	-784.782043
1014.259309	-431.955597	150.997070	-805.062561
1014.262631	-427.922852	145.327881	-824.407959
1014.265928	-425.234375	140.243134	-843.870239
1014.269359	-419.798950	133.697250	-864.793701
1014.272635	-413.019287	127.969612	-882.619446
1014.275969	-406.648743	122.066628	-902.023376
1014.279319	-398.992401	116.046761	-922.713013
1014.282672	-390.985382	109.442436	-941.415466
1014.286049	-381.283478	102.662773	-961.403809
1014.289349	-372.691986	95.649323	-980.223267
1014.292700	-361.762695	88.577438	-999.042725
1014.296034	-350.716522	80.745758	-1017.452881
1014.299326	-339.144379	73.089417	-1035.571045
1014.303088	-327.396851	64.673294	-1054.039795
1014.306458	-313.486847	56.374046	-1071.222656
1014.309763	-300.511963	47.665691	-1086.301636
1014.313143	-286.251312	38.431328	-1101.848022
1014.316437	-271.756866	28.144943	-1118.212646
1014.319763	-257.320892	17.741673	-1132.940918
1014.323087	-242.241974	6.987727	-1146.266479
1014.326387	-225.935715	-4.993571	-1159.358276
1014.329739	-210.447678	-16.624195	-1171.982422
1014.333047	-193.556976	-28.021042	-1182.385742
1014.336380	-176.783173	-41.054356	-1192.029175
1014.339653	-159.366455	-54.087669	-1201.614258
1014.342965	-142.475739	-66.419640	-1209.796631
1014.346322	-124.591461	-79.394508	-1216.342407
1014.349609	-106.648743	-91.960258	-1222.771484
1014.353066	-89.115135	-105.168907	-1226.979492
1014.356376	-71.289307	-118.494453	-1230.427856
1014.359650	-53.171246	-132.170670	-1231.713623
1014.363001	-34.644070	-144.561081	-1234.109863
1014.366365	-16.993570	-156.659256	-1232.590332
1014.370165	2.351841	-168.289886	-1229.025146
1014.373791	20.411453	-180.563416	-1227.797729
1014.377119	38.587959	-191.843369	-1224.817139
1014.380457	56.998253	-202.538864	-1218.154297
1014.383813	74.590302	-213.468155	-1210.848633
1014.387120	92.240799	-221.475159	-1204.653442
1014.390457	110.008186	-230.884872	-1195.769653
1014.393791	127.015778	-238.307419	-1184.665039
1014.397129	145.250732	-246.898880	-1173.151367
1014.400456	161.790756	-253.678543	-1162.631226
1014.403789	178.564575	-260.399750	-1150.825195
1014.407125	194.520172	-266.244293	-1137.558105
1014.410457	210.475739	-271.562805	-1123.531250
1014.413786	225.788437	-276.355347	-1108.510742
1014.417121	239.289322	-279.745178	-1091.561646
1014.420454	253.783752	-283.777893	-1074.963135
1014.423788	267.752197	-286.875519	-1058.890747
1014.427136	280.493256	-289.505524	-1040.363525
1014.430452	292.942139	-291.726471	-1021.368774
1014.433789	305.332550	-294.765625	-1003.250732
1014.437116	315.385162	-295.174744	-984.898865
1014.440454	325.145538	-296.694336	-963.332520
1014.443785	335.081238	-297.863220	-945.272888
1014.447119	344.724701	-299.149017	-924.933899
1014.450457	353.199310	-299.558136	-903.484497
1014.453782	360.797211	-299.382812	-884.080688
1014.457137	367.635315	-302.129730	-863.507812
1014.460459	373.362946	-301.194611	-843.168945
1014.463826	377.863251	-302.071289	-823.005310
1014.467117	382.597321	-302.129730	-802.490906
1014.470464	385.987152	-301.486816	-781.801331
1014.473787	389.786072	-302.129730	-761.929810
1014.477116	391.364136	-301.662170	-741.006409
1014.480452	394.637054	-301.136169	-722.187012
1014.483782	395.163055	-301.253052	-701.497375
1014.487113	396.741089	-301.311493	-682.736389
1014.490455	398.026886	-299.791931	-663.683228
1014.493784	398.845123	-298.973663	-645.097595
1014.497117	397.734680	-297.746307	-625.927551
1014.500449	397.267090	-297.103424	-607.458801
1014.503778	396.273499	-295.116302	-588.697815
1014.507133	395.163055	-293.772064	-571.514893
1014.510445	394.052582	-291.492676	-554.682617
1014.513781	392.591461	-289.096436	-537.090576
1014.517564	389.376984	-287.226166	-520.725891
1014.520898	388.032745	-285.180603	-503.893616
1014.524201	386.337799	-282.550537	-489.282288
1014.527535	382.947968	-279.277618	-474.028046
1014.530866	381.662201	-275.478638	-459.533600
1014.534201	378.915253	-273.082397	-442.935120
1014.537543	377.103455	-269.867889	-429.434235
1014.540868	374.298096	-266.185822	-415.933350
1014.544209	371.551147	-262.620697	-402.374023
1014.547541	368.161316	-259.639954	-390.392731
1014.550933	365.589722	-255.548813	-378.060760
1014.554219	362.959686	-251.632980	-364.968994
1014.557556	360.797211	-246.548218	-354.624207
1014.560868	358.342499	-243.099945	-342.584442
1014.564198	354.134430	-240.879028	-332.298065
1014.567529	351.329041	-235.911163	-322.420807
1014.570874	347.939209	-232.696671	-311.900635
1014.574229	345.133850	-229.657516	-301.848022
1014.577530	341.101105	-226.326126	-292.146118
1014.580867	338.003510	-222.760956	-283.905304
1014.584193	334.379883	-219.371124	-274.670959
1014.587552	330.464050	-215.396851	-265.728790
1014.590897	327.424896	-212.299240	-257.371094
1014.594244	323.684387	-209.376968	-249.773239
1014.597538	319.710114	-206.396255	-241.766220
1014.601285	315.911163	-203.064880	-233.817642
1014.604626	313.281128	-200.201050	-226.628891
1014.607950	309.073059	-198.155472	-218.504959
1014.611308	304.631226	-195.057861	-213.011108
1014.614648	300.832245	-192.194031	-206.289902
1014.618028	297.793121	-189.973114	-200.620682
1014.621365	293.000580	-188.044418	-193.899475
1014.624617	288.850952	-185.765060	-188.347183
1014.627947	284.993561	-183.719452	-181.859741
1014.631273	282.246643	-180.621857	-176.248993
1014.634662	278.564575	-178.751617	-170.170670
1014.637976	273.479828	-177.348923	-165.553482
1014.641358	270.616028	-175.420227	-160.176514
1014.644701	267.343079	-172.907074	-156.085327
1014.647972	263.836334	-170.393921	-151.468155
1014.651278	260.388062	-168.874344	-146.500290
1014.654614	256.764465	-165.952072	-141.941559
1014.657973	254.075989	-164.257156	-138.434830
1014.661317	251.387482	-162.153122	-134.343674
1014.664643	248.523682	-160.282883	-131.012283
1014.668060	244.666275	-158.061966	-127.213333
1014.671373	242.971359	-156.133255	-124.057281
1014.674612	239.932205	-154.087662	-120.725906
1014.677945	237.769730	-152.392761	-116.810059
1014.681295	234.438339	-150.054947	-114.355362
1014.684640	232.860306	-148.476913	-111.257751
1014.688447	230.814728	-146.314438	-107.984818
1014.691385	228.418472	-144.268845	-105.588547
1014.694686	227.132660	-142.515488	-103.133835
1014.698430	224.677979	-140.937454	-100.912918
1014.701769	222.983063	-137.839859	-97.815323
1014.705101	221.405045	-137.255402	-96.178848
1014.708464	219.300995	-134.742264	-93.899490
1014.711843	217.138519	-133.631790	-90.918762
1014.715184	215.443604	-131.703110	-89.048508
1014.718503	213.281113	-129.599060	-86.886032
1014.721842	211.819992	-129.365280	-84.372879
1014.725281	209.949738	-127.378143	-82.911743
1014.728605	208.313263	-125.858566	-80.632385
1014.731924	206.618347	-125.800125	-78.937469
1014.734882	204.397430	-123.520752	-78.002335
1014.738476	203.579193	-122.059624	-76.073639
1014.741844	201.825836	-121.533607	-74.729401
1014.745190	200.306259	-119.721794	-72.800705
1014.748554	198.786667	-119.312683	-72.216248
1014.751909	197.383987	-118.319107	-70.053772
1014.755247	195.922867	-117.325546	-68.066620
1014.758567	193.994156	-116.682640	-67.365280
1014.761922	193.000580	-115.981293	-65.904160
1014.765225	191.481003	-115.279953	-64.676788
1014.768631	189.552307	-114.578606	-63.683224
1014.771913	188.967850	-113.585045	-62.046757
1014.775248	187.156052	-112.533020	-61.637638
1014.778566	186.104034	-112.533020	-60.001171
1014.781884	185.110458	-111.831680	-59.767384
1014.785309	183.473984	-111.597900	-58.832264
1014.788657	182.714203	-111.188782	-56.845119
1014.791970	181.486847	-110.955002	-55.676212
1014.795365	180.902390	-109.844528	-55.617764
1014.798650	179.675034	-108.909409	-54.331966
1014.801989	178.623032	-108.500290	-54.916424
1014.805334	178.564575	-108.441841	-53.922855
1014.808710	176.577438	-107.915848	-53.104618
1014.812096	176.811234	-107.915848	-52.052601
1014.815427	176.168320	-106.746941	-51.468151
1014.818764	176.051437	-106.045593	-50.883694
1014.822139	175.057861	-105.753365	-50.416134
1014.825506	175.057861	-104.701340	-50.240795
1014.828810	174.999420	-103.766220	-49.597897
1014.832221	173.772064	-103.532433	-49.305668
1014.835558	174.181183	-102.947990	-48.662777
1014.838912	173.538284	-102.889542	-49.188778
1014.842209	173.772064	-101.837517	-49.247227
1014.845537	173.246063	-101.311516	-48.779667
1014.848824	172.895386	-100.902390	-48.078320
1014.852181	172.720047	-100.493279	-48.078320
1014.855562	172.895386	-100.259499	-47.552311
1014.858890	172.836945	-99.441269	-47.376980
1014.862217	173.187607	-99.441269	-46.734074
1014.866019	172.018707	-99.207489	-47.026295
1014.869333	172.895386	-99.265923	-46.967854
1014.872650	173.304504	-98.739922	-46.500294
1014.876010	173.246063	-98.389244	-47.201641
1014.879318	173.421387	-98.798363	-46.734074
1014.882638	173.772064	-98.213913	-47.084743
1014.885932	173.421387	-98.623024	-47.260082
1014.889291	173.655167	-98.681473	-47.610760
1014.892695	173.713623	-99.207489	-47.610760
1014.896055	174.181183	-99.324371	-48.195210
1014.899392	173.713623	-99.675049	-47.493870
1014.902780	173.830505	-100.025711	-48.545879
1014.906095	174.473419	-100.084160	-48.779667
1014.909436	175.291641	-100.902390	-49.130337
1014.912779	175.817657	-101.662186	-49.597897
1014.916097	175.876099	-102.012863	-49.422558
1014.919409	176.168320	-102.305077	-50.357685
1014.922748	176.928116	-102.655762	-50.942135
1014.926033	177.746353	-103.006424	-50.123905
1014.929485	177.980133	-103.240204	-51.059032
1014.932779	178.739914	-103.415550	-51.701931
1014.936100	178.856812	-104.233780	-52.286381
1014.939439	180.259491	-103.649330	-52.753948
1014.942793	181.428406	-104.759789	-53.396839
1014.946128	182.188202	-104.818237	-53.455288
1014.949489	182.831100	-105.461136	-54.682644
1014.952814	184.058441	-105.811813	-55.150204
1014.956123	184.935120	-105.636467	-55.968441
1014.959449	186.104034	-106.688492	-57.254238
1014.962766	187.156052	-106.688492	-57.663357
1014.966099	188.149612	-106.922272	-58.189365
1014.969454	190.136765	-106.863823	-59.182934
1014.972832	191.831665	-106.922272	-60.293400
1014.976539	192.591461	-107.974281	-61.228527
1014.979868	194.578613	-107.857399	-62.689655
1014.983179	195.922867	-108.617187	-63.624783
1014.986580	197.442413	-109.727646	-65.027466
1014.989904	199.137344	-109.844528	-65.261246
1014.993209	201.358276	-110.195206	-67.189941
1014.996534	203.111633	-110.662773	-67.949738
1014.999877	204.864990	-110.487442	-69.761536
1015.003247	206.209244	-111.714783	-70.638214
1015.006634	208.780823	-112.591469	-72.391586
1015.010393	210.125076	-112.883698	-74.554062
1015.013736	211.995331	-113.818825	-76.599655
1015.017084	213.865570	-115.747513	-78.294571
1015.020396	215.034500	-116.682640	-79.872589
1015.023733	217.606079	-117.033318	-81.392166
1015.027060	218.950333	-117.851547	-82.911743
1015.030394	221.229675	-120.130920	-85.892471
1015.033733	223.333725	-120.773819	-88.113388
1015.037092	225.379303	-121.650497	-90.334305
1015.040395	227.717117	-123.286957	-92.847458
1015.043726	229.236710	-124.514313	-94.191696
1015.047061	231.574524	-125.566345	-97.230865
1015.050395	234.555237	-127.670380	-99.101105
1015.053721	236.542374	-128.956161	-101.555817
1015.057061	238.763290	-129.774399	-105.588547
1015.060424	241.042664	-132.112213	-107.517258
1015.063722	243.906479	-133.456451	-110.264175
1015.067059	245.659866	-133.865570	-113.712448
1015.070389	249.575684	-135.735825	-116.517822
1015.073722	251.796600	-137.606079	-120.316772
1015.077055	254.660431	-138.891876	-124.583282
1015.080386	257.699585	-139.943893	-127.563995
1015.083724	260.914093	-141.405029	-131.012283
1015.087053	264.187042	-142.924606	-134.869659
1015.090389	266.933960	-144.502625	-139.369965
1015.093724	270.966675	-145.846863	-142.584457
1015.097054	274.298096	-147.132675	-146.792526
1015.100390	278.272339	-148.009354	-151.935715
1015.103720	281.253052	-149.587387	-155.559326
1015.107051	284.876678	-150.756287	-160.234955
1015.110411	288.675629	-151.457626	-165.495041
1015.113723	292.825256	-152.684982	-170.579773
1015.117052	296.857971	-154.263016	-175.839859
1015.120389	301.066040	-154.964355	-180.807724
1015.123715	304.981873	-156.133255	-186.593796
1015.127048	309.014618	-157.886612	-192.379883
1015.130386	313.105774	-158.529526	-197.815308
1015.133724	317.138519	-159.523087	-204.653412
1015.137052	321.814148	-161.802460	-210.439529
1015.140380	325.729980	-162.971359	-216.926941
1015.143717	330.639404	-164.140274	-223.998856
1015.147086	335.081238	-165.367615	-231.772079
1015.150384	339.990662	-167.120987	-238.551712
1015.153714	343.906494	-169.108124	-246.558731
1015.157051	348.699005	-170.160141	-254.682632
1015.160810	352.907074	-172.030396	-261.871399
1015.164154	357.173584	-174.134430	-270.696655
1015.167501	360.680298	-176.939804	-279.054352
1015.170829	364.596130	-178.751617	-288.756256
1015.174163	370.966675	-180.738754	-298.458221
1015.177476	375.759216	-182.492111	-309.036804
1015.180805	378.213928	-185.297485	-317.686707
1015.184137	383.181763	-185.998840	-328.206879
1015.187474	388.734070	-188.862656	-339.486816
1015.190836	391.247223	-192.077148	-350.883698
1015.194140	397.793091	-192.778488	-362.046722
1015.197470	401.241394	-195.759216	-374.378723
1015.200834	405.741669	-198.272354	-386.593811
1015.204161	409.891296	-199.733490	-398.341309
1015.207519	414.216278	-199.850388	-412.309723
1015.210878	418.365906	-202.246628	-425.050812
1015.214158	420.762146	-204.350677	-438.084167
1015.217470	424.736389	-204.993576	-453.279968
1015.220808	429.645813	-205.344238	-467.482178
1015.224131	433.210968	-206.863815	-481.742859
1015.227467	437.652863	-207.798950	-496.237244
1015.230796	441.510223	-208.149612	-511.491516
1015.234155	444.783142	-207.682053	-526.628845
1015.237483	448.757446	-207.915848	-542.233765
1015.240827	450.043243	-207.915848	-558.247803
1015.244154	454.426666	-206.980713	-575.898315
1015.247534	456.706024	-205.870255	-591.444763
1015.251220	460.271210	-204.584442	-608.452332
1015.254555	461.849182	-202.480423	-626.161255
1015.257898	463.251923	-200.551712	-643.694946
1015.261242	465.239044	-200.317947	-661.812988
1015.264614	467.284607	-198.389252	-678.002319
1015.267994	467.869080	-196.109879	-696.120422
1015.271305	470.440674	-193.713623	-714.647583
1015.274600	469.914673	-190.148453	-732.590271
1015.277906	468.395081	-187.985977	-751.643433
1015.281222	467.343079	-185.122147	-771.047302
1015.284595	465.881958	-182.082993	-790.042114
1015.287910	462.842773	-179.219177	-808.803101
1015.291238	460.855652	-176.063126	-827.973083
1015.294673	457.407349	-172.848633	-847.610779
1015.298002	454.075989	-168.523666	-866.430176
1015.301237	449.692566	-165.776749	-884.489746
1015.304558	445.367615	-161.685562	-905.763916
1015.307884	438.587982	-158.646408	-922.245483
1015.311238	431.632996	-154.204559	-941.941528
1015.314573	425.087097	-150.347168	-960.234924
1015.317967	417.372314	-145.905319	-979.989441
1015.321317	408.079468	-141.171249	-996.997070
1015.324639	398.728210	-136.495621	-1014.881348
1015.327881	389.552307	-130.943314	-1032.473389
1015.331232	378.973694	-125.683228	-1048.078369
1015.334992	367.752197	-119.195793	-1065.319702
1015.337950	356.706024	-112.123909	-1080.281738
1015.341327	342.503784	-105.811813	-1093.607178
1015.344637	330.464050	-98.330795	-1108.393921
1015.348386	317.664551	-90.499123	-1121.135010
1015.351736	303.345398	-82.784340	-1133.876099
1015.355110	288.909424	-73.783752	-1145.214478
