time (s)	magX	magY	magZ
1993.031271	364.771484	-202.772659	-524.817078
1993.034630	364.946838	-204.642899	-542.526001
1993.037963	366.291046	-205.402695	-560.760986
1993.041286	366.700195	-206.337830	-579.872620
1993.044608	366.583282	-206.513153	-598.458191
1993.047896	365.355927	-206.571594	-616.926941
1993.051253	365.706604	-206.396255	-636.330811
1993.054540	363.894806	-206.396255	-654.448853
1993.057904	361.966095	-205.344238	-672.800659
1993.061206	360.446533	-204.759796	-691.737000
1993.065015	357.524261	-204.000015	-709.738159
1993.068301	354.952667	-202.129761	-728.791321
1993.071639	351.504395	-200.668610	-746.032715
1993.075025	347.939209	-197.921692	-763.975403
1993.078357	341.743988	-197.044998	-783.087036
1993.081680	336.600800	-194.356522	-800.912964
1993.085038	329.938049	-192.427811	-820.258301
1993.088424	323.625946	-189.797791	-837.850342
1993.091732	315.911163	-185.823502	-854.916382
1993.095029	307.085907	-183.251892	-875.255371
1993.098357	297.442413	-180.037399	-891.327881
1993.101736	286.337799	-175.478668	-909.445923
1993.105050	274.531860	-173.140854	-924.933899
1993.108417	262.842773	-168.699005	-941.181763
1993.111818	248.757446	-163.672714	-956.728271
1993.115143	234.730560	-160.165985	-972.391602
1993.118442	219.534790	-155.081238	-987.178223
1993.121773	203.170074	-149.821167	-1001.906494
1993.125077	185.928696	-144.327301	-1013.244873
1993.128503	167.752197	-138.891876	-1024.291016
1993.131787	148.932785	-131.761536	-1035.103394
1993.135101	128.652252	-125.332565	-1045.156006
1993.138447	108.254822	-118.669785	-1052.286377
1993.141780	87.272942	-110.253654	-1057.429565
1993.145155	66.115723	-102.246643	-1061.579224
1993.148461	44.958504	-93.888954	-1064.501465
1993.151790	22.924606	-85.414383	-1066.956177
1993.155171	2.176505	-75.946228	-1065.378052
1993.158514	-20.266510	-67.179428	-1063.800171
1993.161821	-41.189945	-57.243717	-1060.819458
1993.165221	-61.528931	-47.366455	-1055.267090
1993.168522	-82.218582	-37.489189	-1049.480957
1993.171907	-101.447105	-27.261253	-1042.876709
1993.175243	-120.909409	-17.267094	-1033.817627
1993.178577	-139.904144	-7.097604	-1024.992310
1993.181901	-157.379303	2.838107	-1015.348877
1993.185251	-174.094681	13.884278	-1003.952026
1993.188559	-190.926941	23.469315	-993.256592
1993.192030	-206.531845	33.405025	-979.872620
1993.195332	-221.143188	42.990063	-967.657471
1993.198662	-235.053177	51.873756	-953.689087
1993.202058	-248.378723	60.932789	-937.032104
1993.205405	-261.353607	69.582703	-921.953186
1993.208709	-273.568665	78.174164	-906.582031
1993.212051	-285.023956	86.298073	-890.042114
1993.215374	-295.427246	93.603745	-873.911194
1993.218705	-305.421387	100.441849	-855.559326
1993.222049	-315.883118	106.344833	-838.668640
1993.225355	-325.935699	113.066040	-820.082947
1993.228745	-335.579193	118.501457	-802.023376
1993.232093	-343.352417	124.112213	-782.502625
1993.235377	-350.365875	129.138519	-763.449402
1993.239107	-357.613098	132.879028	-744.513123
1993.242582	-364.684967	137.203979	-725.284607
1993.245900	-370.120392	140.184692	-705.705444
1993.249234	-377.367645	143.223846	-686.243164
1993.252558	-383.212158	146.146118	-666.254822
1993.255893	-386.192871	148.074799	-647.552307
1993.259229	-389.348938	150.237289	-626.570435
1993.262561	-393.498535	151.639969	-606.523621
1993.265898	-396.187042	153.451782	-587.002869
1993.269234	-397.706604	153.860901	-567.014587
1993.272560	-398.407959	154.620697	-546.383362
1993.275893	-400.395111	154.620697	-527.037964
1993.279236	-399.050842	155.614258	-508.978333
1993.282556	-400.219727	155.672699	-490.100525
1993.285891	-398.524841	156.023376	-471.398010
1993.289229	-396.596130	155.263596	-454.098175
1993.292560	-393.732330	155.205139	-435.629456
1993.295894	-392.446533	155.088257	-419.440063
1993.299224	-388.355347	154.328461	-403.309143
1993.302562	-386.718872	154.386917	-387.587341
1993.305891	-381.225006	153.627121	-372.450012
1993.309220	-378.010529	153.860901	-358.715363
1993.312589	-374.562256	153.042664	-345.448273
1993.315922	-369.652832	152.049103	-333.174744
1993.319226	-365.094116	151.055527	-319.556976
1993.322564	-361.002899	150.587967	-307.400330
1993.325889	-356.151947	149.828171	-296.529510
1993.329219	-352.353027	148.133255	-286.184692
1993.332551	-348.028046	147.431915	-275.547607
1993.335890	-341.949738	146.730560	-266.254822
1993.339218	-338.559906	145.736984	-255.676193
1993.342979	-333.007599	144.158966	-246.734085
1993.346313	-327.805969	143.516068	-238.025711
1993.349641	-323.422577	141.762711	-229.901810
1993.352989	-320.032745	140.827576	-221.602554
1993.356347	-314.772644	139.249557	-214.296890
1993.359717	-310.506134	137.203979	-206.640564
1993.363004	-305.596710	136.268860	-200.153122
1993.366336	-301.037994	133.755692	-192.496780
1993.369645	-295.485687	131.651672	-184.840454
1993.372976	-291.686737	129.956741	-178.236130
1993.376307	-286.601990	128.495621	-172.333145
1993.379649	-283.679718	125.631798	-165.670380
1993.382973	-278.419617	123.060204	-159.066055
1993.386306	-274.620697	120.313263	-153.279953
1993.389666	-270.178833	118.618355	-146.617187
1993.392996	-265.035645	116.280540	-140.831100
1993.396329	-261.002930	114.176498	-135.863235
1993.399716	-256.619537	112.130913	-130.077148
1993.403002	-251.943893	109.734650	-124.232620
1993.406306	-248.846283	107.338402	-118.446518
1993.409644	-244.345993	104.649910	-113.128006
1993.412975	-240.079483	102.838104	-108.569260
1993.416297	-235.871429	100.500290	-104.419647
1993.419634	-231.488022	98.337814	-99.393341
1993.422975	-228.624191	97.168907	-95.302170
1993.426325	-223.597900	95.649323	-91.210983
1993.429663	-219.506729	93.837524	-87.119812
1993.433003	-215.532440	92.259499	-83.203979
1993.436346	-212.376389	90.915253	-78.995911
1993.440069	-208.635880	89.571007	-76.015198
1993.443397	-204.720047	87.525429	-72.859146
1993.446753	-201.797775	86.882523	-70.404434
1993.450079	-198.349503	85.830505	-67.014618
1993.453426	-195.368790	84.603149	-64.910583
1993.456807	-192.037415	82.966682	-63.157215
1993.460138	-189.056686	82.265343	-60.293400
1993.463460	-186.660431	81.973114	-57.721806
1993.466727	-183.679718	81.096436	-56.552898
1993.470070	-180.815887	79.810638	-54.565746
1993.473438	-178.945633	79.401520	-52.403278
1993.476778	-175.672699	78.349503	-52.403278
1993.480068	-173.042664	77.765045	-50.065464
1993.483499	-171.523087	76.946808	-48.370541
1993.486805	-169.302155	75.719460	-47.260082
1993.490069	-167.139694	75.485680	-45.156048
1993.493379	-164.801880	74.784340	-44.513149
1993.496725	-163.457626	73.381653	-42.993572
1993.500085	-161.587372	72.797195	-41.883106
1993.503409	-159.483337	71.978958	-40.012859
1993.506827	-157.379303	71.277618	-39.077732
1993.510148	-155.450607	70.342491	-38.201046
1993.513453	-153.755692	69.348923	-36.798359
1993.516715	-152.937469	68.413795	-36.038578
1993.520055	-150.307419	67.303329	-33.700764
1993.523825	-148.261841	67.011108	-32.473408
1993.526752	-146.917603	65.023964	-31.772060
1993.530156	-145.807129	63.971947	-31.070721
1993.533568	-143.235535	62.978374	-29.492699
1993.537222	-142.183517	62.627701	-28.849796
1993.540612	-140.488602	61.984806	-26.804207
1993.543555	-139.378143	61.166573	-25.459969
1993.547158	-138.092346	59.530094	-24.817066
1993.550554	-136.280548	59.296314	-24.232613
1993.553893	-133.767380	58.185856	-22.479252
1993.557280	-133.358276	57.542953	-21.953247
1993.560661	-132.130920	56.900059	-21.135014
1993.563961	-129.208649	56.257156	-19.966099
1993.567436	-127.864410	55.088249	-19.673878
1993.570770	-127.104622	54.737579	-19.206314
1993.573691	-125.935715	54.270016	-17.160725
1993.577264	-124.123901	53.919342	-17.394505
1993.580596	-123.422554	53.334892	-16.225597
1993.584004	-122.370544	52.633545	-15.699593
1993.587302	-121.084740	52.867329	-15.524254
1993.590666	-119.915833	52.516655	-14.822910
1993.594062	-119.448273	52.224430	-14.939800
1993.597393	-118.571594	51.815311	-14.939800
1993.600684	-117.694916	51.932201	-14.063122
1993.603996	-117.052010	51.756866	-14.121567
1993.607297	-116.642899	51.756866	-13.770893
1993.610761	-116.409111	51.698421	-13.478668
1993.614122	-115.181763	51.873756	-13.186440
1993.617466	-114.947975	51.523087	-12.718880
1993.620750	-114.480415	51.581532	-13.420223
1993.624089	-113.954414	51.873756	-13.186440
1993.627397	-114.071304	51.289303	-13.478668
1993.630744	-113.837517	51.289303	-13.770893
1993.634079	-113.369957	51.698421	-13.244884
1993.637404	-113.369957	51.289303	-12.718880
1993.640721	-113.077728	51.347748	-13.186440
1993.644019	-112.668610	51.113968	-13.011105
1993.647396	-112.610168	51.406193	-13.244884
1993.650757	-111.558151	50.646404	-13.361778
1993.654103	-111.791939	50.237289	-12.894215
1993.657535	-111.207474	50.120396	-12.543541
1993.660853	-111.032143	50.003506	-11.842197
1993.664191	-111.090591	50.003506	-12.835770
1993.667492	-111.090591	49.477497	-12.660431
1993.670858	-111.324371	49.477497	-12.485096
1993.674195	-110.798363	48.717709	-11.725307
1993.677516	-110.623032	49.009937	-11.725307
1993.680828	-111.265923	48.425484	-11.608418
1993.684579	-110.272354	48.600819	-11.549973
1993.687987	-110.506134	47.899475	-10.790180
1993.691338	-110.155464	47.899475	-11.549973
1993.694238	-110.213913	47.841030	-11.199299
1993.697578	-110.213913	47.373466	-10.556400
1993.701361	-109.687904	47.431911	-10.790180
1993.704662	-110.272354	47.198132	-10.497955
1993.708052	-109.863235	47.665691	-9.913502
1993.711373	-110.447693	47.841030	-10.088837
1993.714709	-110.389252	47.490356	-10.673290
1993.718045	-110.447693	47.665691	-10.614845
1993.721382	-109.746353	48.016365	-10.439510
1993.724672	-110.798363	48.483929	-10.614845
1993.727971	-111.207474	48.425484	-10.790180
1993.731315	-111.324371	48.483929	-10.614845
1993.734651	-111.675041	49.243717	-11.608418
1993.737953	-112.025719	49.886616	-11.783752
1993.741261	-113.077728	49.886616	-11.608418
1993.744604	-114.071304	50.704849	-12.134426
1993.747926	-114.305084	50.997078	-12.835770
1993.751345	-114.655762	50.880188	-13.069550
1993.754667	-115.473991	51.756866	-12.894215
1993.757984	-116.116882	52.691990	-14.238457
1993.761356	-116.818230	53.101109	-14.881355
1993.764706	-116.993576	53.510227	-14.706020
1993.768011	-118.045586	53.860897	-16.167156
1993.771378	-119.214493	54.620689	-15.991817
1993.774675	-120.558739	54.971359	-17.160725
1993.778000	-121.318520	55.322033	-17.862068
1993.781320	-121.844536	55.438923	-18.329632
1993.785070	-122.896553	56.315605	-18.212738
1993.788416	-124.182350	56.607830	-19.030975
1993.791725	-125.409698	56.783169	-19.790768
1993.795103	-126.111046	57.016949	-20.141438
1993.798405	-127.572182	57.718292	-20.959675
1993.801756	-128.507309	57.484512	-21.427235
1993.805062	-129.150208	57.776737	-21.485683
1993.808425	-131.721802	58.185856	-21.661018
1993.811776	-132.247818	59.120983	-21.953247
1993.815084	-132.949158	59.004089	-22.654591
1993.818408	-134.351837	59.413204	-22.479252
1993.821763	-135.812988	59.413204	-24.115723
1993.825125	-136.397430	60.348335	-23.998829
1993.828497	-138.501450	61.166573	-25.050846
1993.831770	-139.845703	61.341904	-25.869080
1993.835074	-141.073059	61.692577	-26.278202
1993.838466	-142.475739	62.101696	-26.745766
1993.841740	-144.638214	62.277031	-28.674458
1993.845085	-145.398010	63.212154	-28.908237
1993.848407	-147.326706	63.445938	-30.369373
1993.851780	-148.203384	63.855057	-30.720043
1993.855139	-150.073639	65.666862	-31.713619
1993.858453	-152.177673	66.426651	-32.824078
1993.861765	-154.164825	67.478668	-34.635891
1993.865142	-155.216827	68.355347	-35.804790
1993.868436	-157.554642	69.348923	-36.973698
1993.871849	-159.074219	70.342491	-38.259495
1993.875149	-161.996490	72.037407	-39.954418
1993.878512	-164.626526	73.147865	-41.473995
1993.881846	-166.379898	74.550552	-43.753361
1993.885215	-168.951492	75.953247	-45.039158
1993.888539	-171.055527	76.771477	-47.084743
1993.892015	-174.211578	78.758621	-49.130337
1993.895404	-177.016953	80.336647	-51.468151
1993.899160	-178.828751	81.680885	-53.981297
1993.902516	-182.043243	82.557571	-56.026882
1993.905834	-184.381058	84.661598	-58.656925
1993.909168	-187.946228	86.473404	-61.462307
1993.912495	-191.452942	86.824074	-64.267685
1993.915833	-194.375214	88.752777	-65.904160
1993.919161	-197.531265	90.213913	-69.527756
1993.922497	-200.395081	91.441261	-72.508469
1993.925831	-203.901810	92.610168	-75.547638
1993.929159	-207.700760	93.545296	-78.586792
1993.932494	-210.038574	94.831093	-80.807709
1993.935827	-213.837524	96.116890	-84.431335
1993.939164	-217.168900	97.110458	-88.347168
1993.942492	-220.967850	98.513145	-92.029221
1993.945860	-225.526581	99.448273	-96.003510
1993.949159	-228.215088	100.032730	-99.977798
1993.952492	-232.130920	101.786087	-102.374054
1993.955832	-236.105194	102.662773	-106.874344
1993.959155	-240.313263	104.007011	-110.614838
1993.962488	-243.235535	105.175919	-114.998245
1993.965827	-247.209824	106.812393	-119.440094
1993.969155	-251.008759	108.156631	-123.297501
1993.972492	-253.931030	109.793098	-127.330215
1993.975862	-258.314453	111.078903	-132.707199
1993.979179	-262.697845	113.124489	-137.324371
1993.982484	-266.613678	114.351845	-143.227356
1993.985823	-270.412628	116.046761	-148.838104
1993.989193	-275.438934	118.618355	-155.150208
1993.992493	-279.588562	120.137932	-160.001175
1993.995830	-283.796600	122.066628	-167.073074
1993.999151	-287.420227	124.053772	-174.086502
1994.002489	-292.329651	127.034485	-181.158386
1994.005818	-296.303894	129.080078	-188.230286
1994.009155	-301.563995	131.476334	-196.237289
1994.012484	-305.888947	134.106369	-205.062546
1994.015822	-309.980133	136.794846	-213.244904
1994.019154	-314.538879	139.074234	-222.245499
1994.022493	-319.331360	142.171829	-232.122726
1994.025816	-323.831665	144.509644	-242.584457
1994.029156	-327.455292	146.789017	-252.578629
1994.032505	-332.773834	148.893051	-264.267670
1994.035816	-337.157227	151.289307	-274.554047
1994.039155	-342.300415	153.042664	-287.119812
1994.042935	-345.398010	156.081818	-298.867310
1994.046265	-350.774994	157.718292	-311.900635
1994.049575	-354.690826	159.179428	-324.407928
1994.052909	-358.781982	160.465225	-338.201050
1994.056251	-362.990051	162.160141	-351.701904
1994.059575	-367.431915	162.803040	-366.196381
1994.062913	-370.938629	163.095276	-379.638794
1994.066231	-374.562256	164.088837	-394.951477
1994.069561	-378.127411	164.322617	-408.919891
1994.072933	-382.218597	164.088837	-423.823486
1994.076264	-385.082397	163.504379	-439.895966
1994.079592	-388.063110	162.803040	-455.617767
1994.082968	-390.167145	162.218582	-472.099335
1994.086249	-392.154297	160.523682	-487.821167
1994.089572	-394.199890	159.120972	-504.302734
1994.092897	-394.784332	158.536530	-520.901184
1994.096240	-397.180603	156.490952	-537.382812
1994.099576	-396.070129	154.503799	-555.325562
1994.102896	-395.602570	152.575104	-572.040894
1994.106253	-396.537689	150.704849	-589.691406
1994.109585	-395.427246	148.250153	-607.809448
1994.112922	-393.790771	146.263000	-626.570435
1994.116260	-392.037415	144.100525	-645.623596
1994.119643	-388.004669	141.119812	-663.800110
1994.122904	-385.199310	138.606659	-683.087036
1994.126242	-379.822327	135.918167	-702.140259
1994.129998	-375.205139	132.762131	-719.732300
1994.133327	-370.295715	129.489182	-741.181763
1994.136736	-362.230255	125.865578	-762.105164
1994.140024	-355.625946	122.417297	-780.457031
1994.143400	-347.560486	118.209229	-799.860840
1994.146732	-337.391022	113.767387	-819.907654
1994.150065	-327.279938	109.033310	-839.895996
1994.153317	-316.292236	104.357681	-858.890747
1994.156649	-303.668030	98.980713	-878.294556
1994.160008	-290.634705	93.253067	-897.639954
1994.163336	-277.601410	86.590294	-914.881348
1994.166679	-263.457642	80.219757	-932.005859
1994.170105	-249.196945	72.855637	-948.429016
1994.173401	-233.241379	65.082405	-964.150818
1994.176695	-216.233765	57.075394	-978.878967
1994.179987	-199.226181	47.957920	-992.730469
1994.183320	-182.043243	39.015781	-1004.594971
1994.186685	-164.626526	29.956749	-1016.108643
1994.190010	-145.807129	20.254822	-1026.862671
1994.193437	-127.163055	10.202221	-1037.149048
1994.196746	-108.343658	-0.960842	-1045.389893
1994.200053	-89.699585	-11.831677	-1051.818848
1994.203322	-70.763298	-22.644066	-1059.592041
1994.206669	-52.236118	-33.924019	-1064.092285
1994.209976	-33.533607	-44.385738	-1065.787231
1994.213336	-14.947984	-55.022797	-1068.592651
1994.216682	4.163647	-65.250732	-1068.592651
1994.220075	22.281708	-75.770889	-1066.780884
1994.223423	40.107540	-85.940384	-1064.033936
1994.227133	58.167160	-95.408539	-1061.637573
1994.230505	75.233200	-104.759789	-1057.780273
1994.233810	92.883690	-114.344826	-1052.052612
1994.237192	109.774406	-122.527176	-1044.104004
1994.240576	126.372879	-130.826416	-1035.161865
1994.243894	142.796021	-138.541199	-1027.388672
1994.247196	158.693161	-145.613083	-1016.284058
1994.250588	174.531845	-151.223846	-1005.530029
1994.253877	190.312103	-157.711288	-992.847412
1994.257264	204.222092	-163.205154	-980.690857
1994.260546	219.943893	-167.763885	-966.722412
1994.263883	233.269440	-171.855057	-951.877319
1994.267219	246.478088	-176.530685	-937.499695
1994.270561	259.686737	-180.855652	-920.842712
1994.273859	271.668030	-183.427246	-904.536499
1994.277287	283.532440	-186.291061	-886.944458
1994.280599	294.929260	-188.804214	-869.235535
1994.283926	305.800110	-190.674454	-850.065430
1994.287228	315.911163	-192.369385	-830.953796
1994.290539	325.203979	-194.356522	-812.718872
1994.293945	333.853882	-195.642319	-792.496765
1994.297318	341.451782	-196.811218	-772.859070
1994.300626	348.231445	-198.038574	-752.052612
1994.303997	355.011108	-198.739929	-730.720032
1994.307325	360.680298	-199.733490	-710.556396
1994.310645	363.368774	-199.558151	-691.503174
1994.313975	367.109283	-200.259506	-672.099365
1994.317281	371.025146	-199.908813	-652.344849
1994.320724	372.486267	-200.727066	-632.122742
1994.324030	373.947388	-200.201050	-613.127991
1994.327344	375.876099	-200.610168	-594.191711
1994.330684	375.466980	-200.434845	-575.781372
1994.334062	376.518982	-200.551712	-556.436035
1994.337356	375.642303	-200.434845	-538.668640
1994.340716	373.655182	-199.908813	-521.602600
1994.344054	372.194031	-198.915253	-505.354736
1994.347411	369.973114	-198.623032	-488.931580
1994.350738	368.161316	-197.921692	-472.566925
1994.354081	365.063690	-197.220337	-457.312683
1994.357453	363.251923	-195.992981	-441.941528
1994.360808	360.271179	-195.934555	-426.336609
1994.364107	356.530670	-194.298065	-412.543518
1994.367412	353.900635	-192.486267	-399.042633
1994.371190	349.751038	-189.914673	-386.360016
1994.374157	346.361206	-189.564011	-373.560455
1994.377504	342.094696	-187.109299	-361.170074
1994.380834	337.594391	-185.005264	-349.656342
1994.384205	335.139679	-183.310349	-337.616577
1994.387523	331.340729	-180.797195	-326.862640
1994.391288	328.593811	-178.342484	-314.998230
1994.394599	324.268860	-176.355347	-306.056091
1994.397973	319.593231	-173.959091	-295.185272
1994.400918	316.787842	-170.627701	-285.424896
1994.404654	312.579773	-168.465225	-275.255371
1994.407963	309.832855	-165.075394	-266.254822
1994.411339	305.975433	-163.205154	-256.552887
1994.414641	302.585632	-159.230865	-247.961441
1994.418054	298.786682	-156.425476	-239.954422
1994.421368	294.052612	-153.620102	-229.843369
1994.424687	290.487427	-151.457626	-222.187027
1994.428029	286.571594	-148.827591	-214.822922
1994.431372	282.480408	-146.489777	-206.640564
1994.434673	277.980133	-142.924606	-200.094681
1994.438046	273.947388	-140.645248	-192.730576
1994.441390	269.797791	-137.956757	-185.541809
1994.444713	265.998840	-135.618942	-178.995895
1994.448027	262.082977	-133.514908	-172.976044
1994.451333	256.822906	-131.410873	-166.430176
1994.454706	253.959106	-129.423721	-160.293396
1994.458068	250.452362	-126.969025	-154.916428
1994.461408	245.542969	-125.741669	-149.656357
1994.464764	241.627136	-123.696091	-144.571594
1994.468111	237.945068	-122.176506	-138.551727
1994.471414	234.438339	-120.715370	-133.992996
1994.474741	230.464066	-119.137344	-130.427826
