time (s)	magX	magY	magZ
1276.478035	-388.063110	190.564590	-749.539490
1276.481386	-382.861481	188.051437	-769.995300
1276.484693	-377.776733	186.882523	-788.639343
1276.488010	-370.704865	184.369370	-808.393921
1276.491337	-362.405609	181.973114	-827.739319
1276.494671	-356.035065	179.752197	-848.487488
1276.498012	-347.326691	175.836349	-866.663940
1276.501375	-336.806549	172.095840	-886.418457
1276.504664	-326.227936	168.063110	-904.887207
1276.508002	-317.636444	162.510818	-923.881897
1276.511812	-304.778503	157.367615	-941.824646
1276.515164	-292.914093	151.756866	-960.877808
1276.518497	-280.289886	145.094101	-979.755676
1276.521763	-266.672119	138.255981	-996.062012
1276.525103	-253.521912	130.482758	-1014.472168
1276.528419	-238.092346	121.774399	-1031.713623
1276.531786	-222.370544	113.182938	-1045.974243
1276.535114	-207.642303	104.065460	-1063.566284
1276.538506	-189.699600	94.188194	-1077.651733
1276.541847	-171.873749	83.960258	-1089.340698
1276.545161	-154.398605	73.790764	-1103.192383
1276.548421	-135.929871	62.686150	-1114.822876
1276.551777	-116.116882	52.399765	-1125.284668
1276.555088	-96.537697	41.178257	-1135.629395
1276.558442	-76.549385	29.489189	-1143.227417
1276.561776	-56.385738	18.267681	-1148.253662
1276.565169	-35.520748	7.104617	-1154.390381
1276.568529	-15.064875	-4.584453	-1159.066040
1276.571756	6.384570	-15.279954	-1161.228516
1276.575086	27.132671	-26.150787	-1161.403809
1276.578415	48.231445	-36.612511	-1161.988403
1276.581787	68.979546	-46.665108	-1160.001221
1276.585115	89.727646	-56.425484	-1157.312622
1276.588543	110.358856	-65.718292	-1152.578613
1276.591834	130.113388	-74.543541	-1148.078369
1276.595152	149.692581	-82.959671	-1139.136230
1276.598873	169.154877	-91.668030	-1132.648804
1276.602206	188.383392	-98.798363	-1122.946777
1276.605608	206.092346	-106.805374	-1113.303345
1276.608941	223.859726	-112.240791	-1101.322021
1276.611868	240.282883	-119.020454	-1089.106934
1276.615618	256.881378	-125.332565	-1076.073608
1276.618921	272.427826	-132.053772	-1061.637573
1276.622338	288.617187	-137.021622	-1046.967896
1276.625719	303.111633	-141.697250	-1030.544678
1276.629015	315.969604	-147.074219	-1014.881348
1276.632342	328.944489	-151.399185	-997.230835
1276.635643	341.276428	-156.367035	-979.697205
1276.638949	353.082397	-160.224426	-961.754517
1276.642264	362.725891	-164.490936	-941.824646
1276.645596	373.713623	-168.932785	-922.771423
1276.649014	382.246643	-172.205719	-902.958496
1276.652351	390.136749	-175.712448	-884.139038
1276.655658	397.968414	-180.446518	-863.624756
1276.658965	405.040344	-182.725891	-843.753357
1276.662300	410.651093	-185.881943	-821.485718
1276.665669	415.969604	-189.622437	-799.919312
1276.669049	419.768555	-192.369385	-777.476318
1276.672367	423.567505	-194.707199	-757.487976
1276.675669	427.366425	-197.629471	-737.265930
1276.678992	428.360016	-199.441254	-714.764465
1276.682353	430.756256	-200.785507	-694.600830
1276.685637	431.691406	-202.012863	-672.917603
1276.688999	432.918762	-203.532440	-651.818787
1276.692300	432.042053	-203.883118	-631.947388
1276.695617	432.334320	-204.759796	-612.134399
1276.698993	430.639404	-205.402695	-591.795410
1276.702322	430.405609	-204.467575	-572.625366
1276.706140	427.132690	-204.409119	-553.805969
1276.709063	425.496185	-204.642899	-534.869690
1276.712393	423.567505	-203.357086	-516.985352
1276.715703	420.353027	-202.655762	-499.276428
1276.719455	418.541229	-201.837524	-482.794861
1276.722753	414.859131	-200.259506	-466.722382
1276.726135	412.579773	-199.558151	-451.175934
1276.729461	408.021057	-196.869675	-433.934540
1276.732797	404.865021	-194.882523	-419.498535
1276.736124	400.949188	-192.427811	-406.172974
1276.739486	396.039764	-190.674454	-392.204559
1276.742852	391.890137	-188.804214	-377.184082
1276.746206	388.734070	-186.583282	-364.501434
1276.749567	384.876678	-183.953232	-352.403259
1276.752940	380.142609	-181.615433	-340.714172
1276.756217	376.577423	-179.569839	-329.960236
1276.759564	372.018707	-177.582703	-317.452942
1276.762858	368.628876	-174.368210	-306.289886
1276.766220	363.485687	-172.497955	-296.003510
1276.769578	359.102295	-169.809479	-285.483337
1276.772889	353.608429	-166.887207	-275.781403
1276.776199	348.874329	-165.133835	-265.261230
1276.779516	344.783173	-163.088257	-256.728210
1276.782843	340.049072	-160.867340	-247.610764
1276.786257	334.555237	-158.471069	-238.960831
1276.789562	329.821167	-155.957916	-231.129166
1276.792891	324.502625	-154.789001	-222.011703
1276.796292	319.885468	-152.334305	-214.121567
1276.799593	314.450043	-150.113388	-206.582123
1276.802922	310.183502	-148.243134	-199.334885
1276.806205	304.572754	-146.255997	-191.210999
1276.809563	300.247833	-144.736404	-185.717133
1276.812932	295.455292	-142.515488	-178.294571
1276.816659	290.253662	-140.995911	-170.346008
1276.819986	284.526001	-139.242538	-164.735245
1276.823347	280.902405	-137.021622	-158.598495
1276.826674	276.402100	-135.268265	-152.637054
1276.829616	271.375793	-133.924026	-146.734085
1276.833379	267.050842	-132.287552	-140.714218
1276.836684	262.959686	-130.884857	-136.038574
1276.840021	257.758026	-128.897720	-131.070724
1276.843318	254.368225	-126.910583	-126.044418
1276.846744	249.108124	-125.683228	-122.070145
1276.850080	246.244293	-123.988312	-118.095856
1276.853378	242.153122	-122.118057	-112.894226
1276.856752	238.704865	-120.656921	-109.270599
1276.860095	235.490356	-119.371132	-106.289902
1276.863414	232.100525	-117.617767	-102.724731
1276.866780	229.178268	-116.215073	-99.510239
1276.870112	226.548233	-113.994156	-96.003510
1276.873469	224.268845	-112.474571	-92.672119
1276.876817	220.469910	-110.838104	-90.392746
1276.880204	217.839874	-109.727646	-87.236710
1276.883506	215.209824	-107.565163	-84.840439
1276.886927	212.112213	-106.396255	-81.918167
1276.890250	209.949738	-104.759789	-79.521927
1276.893561	207.202805	-103.883110	-77.885452
1276.896886	204.631226	-102.947990	-74.670944
1276.900223	202.994736	-100.843956	-72.976028
1276.903587	200.364700	-99.324371	-70.930450
1276.906995	198.845108	-98.681473	-69.001755
1276.910262	196.156631	-96.811226	-66.663940
1276.913583	194.286377	-95.876099	-64.969025
1276.916886	191.890137	-95.350090	-63.157215
1276.920335	189.552307	-94.824074	-61.637638
1276.923644	187.506714	-93.538277	-60.059620
1276.927007	184.993576	-92.310928	-58.656925
1276.930361	182.597305	-91.375809	-56.552898
1276.933687	180.142609	-90.732903	-54.448856
1276.936989	178.038574	-89.154884	-53.455288
1276.940369	176.518997	-88.336647	-51.701931
1276.943692	174.590302	-87.869087	-49.539448
1276.947084	172.953827	-87.576859	-48.078320
1276.950388	170.499115	-86.583290	-46.967854
1276.953680	168.628876	-86.174164	-45.389828
1276.957063	165.823486	-84.888367	-44.104031
1276.960362	165.355927	-85.063705	-42.818233
1276.963697	163.777908	-84.654587	-41.006435
1276.967020	160.972534	-83.193451	-39.954418
1276.970418	159.686722	-83.193451	-39.077732
1276.973750	159.102280	-82.199883	-38.259495
1276.977095	157.056702	-82.082993	-37.499706
1276.980468	155.478668	-81.790764	-36.097019
1276.984200	154.543533	-81.264763	-35.045002
1276.987536	152.556396	-80.271187	-34.518993
1276.990863	152.030396	-79.803619	-33.876095
1276.994196	150.510803	-79.043839	-33.466984
1276.997534	149.400345	-79.219170	-32.181187
1277.000866	148.523666	-78.517822	-32.064289
1277.004195	148.231445	-78.284042	-31.246059
1277.007550	147.354767	-77.524261	-29.960262
1277.010864	146.127411	-77.173584	-30.135593
1277.014198	145.952072	-77.115135	-29.375809
1277.017525	145.484512	-76.121567	-29.142021
1277.020862	144.549393	-75.829338	-29.317360
1277.024195	143.906479	-75.595558	-29.200470
1277.027526	143.146698	-75.420219	-28.499123
1277.030860	143.029800	-75.303329	-27.856224
1277.034197	142.679138	-74.835770	-27.680889
1277.037525	142.679138	-74.017532	-28.265343
1277.040859	141.568665	-73.608421	-27.330219
1277.044236	141.218002	-73.783752	-27.388660
1277.047525	140.575104	-73.608421	-27.271770
1277.050866	140.341324	-73.140854	-27.213326
1277.054192	140.165985	-72.790184	-26.511982
1277.057527	140.282883	-73.140854	-27.271770
1277.060856	140.341324	-72.731735	-27.037987
1277.064189	139.815308	-73.023964	-26.687317
1277.067517	139.347748	-72.965515	-26.161312
1277.070854	139.230850	-72.907074	-25.343075
1277.074610	138.529510	-73.023964	-25.343075
1277.077946	138.178848	-72.614845	-24.933956
1277.081291	137.945068	-73.433075	-23.765049
1277.084634	137.185272	-72.790184	-24.174168
1277.088011	137.477509	-73.199295	-24.466393
1277.091299	136.951492	-73.140854	-23.706608
1277.094655	137.652832	-73.140854	-24.057278
1277.097951	136.250153	-72.965515	-23.589718
1277.101272	136.834610	-73.900642	-23.706608
1277.104605	136.367050	-73.666862	-23.823498
1277.107946	136.250153	-74.601982	-23.823498
1277.111300	136.600830	-74.426651	-23.472824
1277.114604	136.483932	-74.718880	-23.881939
1277.117936	136.600830	-74.485092	-23.881939
1277.121320	137.126831	-74.309761	-24.174168
1277.124634	136.659256	-75.186440	-24.232613
1277.127968	137.009933	-75.244888	-24.700176
1277.131357	137.769730	-75.887779	-24.933956
1277.134611	137.886612	-76.004677	-25.927528
1277.137947	138.412628	-75.595558	-26.102863
1277.141277	139.172424	-76.472244	-26.102863
1277.144602	139.990646	-76.472244	-26.570427
1277.147936	140.867325	-76.881355	-26.453533
1277.151272	141.334885	-77.290474	-27.447109
1277.154618	142.153122	-78.284042	-28.148453
1277.157958	143.438919	-77.816483	-29.083576
1277.161300	143.789597	-78.517822	-30.077152
1277.165135	144.900055	-79.452950	-29.434250
1277.168371	146.302750	-79.160728	-30.778492
1277.171690	147.471649	-79.920517	-31.362949
1277.175052	148.465225	-80.738747	-32.181187
1277.178394	148.815903	-81.440094	-32.824078
1277.181720	150.277023	-81.440094	-33.642315
1277.185117	150.393921	-82.024544	-33.992985
1277.188460	152.322617	-82.550560	-34.518993
1277.191813	153.374634	-83.251900	-35.746349
1277.195027	154.718887	-83.953247	-36.389248
1277.198375	155.595566	-84.888367	-37.791935
1277.201688	156.881348	-85.297485	-38.201046
1277.205093	157.524261	-86.407951	-38.493282
1277.208373	159.219162	-87.109291	-39.428402
1277.211773	160.095856	-88.219757	-39.720638
1277.215114	161.615433	-88.628868	-40.831097
1277.218385	162.667450	-89.739334	-42.058445
1277.221690	163.777908	-90.674461	-42.292233
1277.225021	165.239044	-91.784920	-44.045589
1277.228381	166.349503	-92.018700	-44.805378
1277.231713	167.343079	-93.888954	-45.565166
1277.235128	169.622437	-94.940971	-47.552311
1277.238440	170.791351	-95.350090	-48.487438
1277.241758	172.252487	-96.402107	-49.890125
1277.245023	173.772064	-98.272362	-51.175922
1277.248806	175.992981	-98.856812	-52.812389
1277.252152	177.161896	-100.376396	-53.864407
1277.255533	178.506134	-101.837517	-55.500874
1277.258441	179.908813	-102.947990	-57.604916
1277.261798	182.655762	-104.058449	-59.182934
1277.265517	184.584457	-105.636467	-60.994740
1277.268820	186.571594	-107.389832	-62.981884
1277.272146	189.435425	-108.617187	-64.852127
1277.275555	191.773239	-110.195206	-67.365280
1277.278856	194.637039	-111.305664	-69.410873
1277.282211	197.325546	-113.234367	-72.040909
1277.285539	200.189362	-114.987732	-75.138519
1277.288859	202.527176	-116.331970	-77.593216
1277.292206	205.215652	-117.442429	-80.866165
1277.295622	208.488586	-119.663361	-84.197556
1277.298944	210.826431	-121.007599	-85.834015
1277.302272	213.982468	-122.819397	-89.983627
1277.305641	217.839874	-124.572769	-93.665695
1277.308987	220.937469	-125.683228	-96.354187
1277.312295	223.625961	-128.547043	-100.737579
1277.315658	227.366455	-130.183517	-103.601410
1277.318949	229.470474	-131.878433	-107.692581
1277.322270	232.977203	-133.339569	-112.192871
1277.325592	236.133255	-135.852722	-115.933380
1277.328890	240.224442	-137.372299	-120.141449
1277.332202	242.679123	-139.417892	-124.700180
1277.335592	246.010529	-141.229691	-128.966690
1277.338981	249.692566	-144.385742	-133.583878
1277.342296	252.088837	-146.723557	-138.201050
1277.345614	256.472229	-148.769135	-142.409119
1277.348980	259.043854	-151.165405	-148.487442
1277.352313	262.959686	-152.977203	-152.929291
1277.355644	266.232605	-156.191696	-157.721802
1277.359012	269.271759	-158.704849	-163.858566
1277.362315	273.129150	-161.977798	-168.943314
1277.365706	276.518982	-164.490936	-174.144943
1277.369009	280.025696	-166.887207	-180.457047
1277.372347	283.473999	-169.926361	-187.002930
1277.375698	287.097595	-172.848633	-193.139679
1277.379112	290.136749	-176.296906	-200.854477
1277.382424	293.994141	-179.277618	-207.751022
1277.385789	297.383972	-182.082993	-215.758041
1277.389126	301.708954	-184.829926	-223.531265
1277.392485	306.150787	-188.570435	-231.187607
1277.396243	310.358856	-191.668030	-239.895981
1277.399546	313.924011	-195.233185	-249.481033
1277.402890	317.898315	-198.213898	-258.890686
1277.406256	322.164795	-200.960846	-269.177063
1277.409541	325.496216	-205.052002	-279.346588
1277.412853	330.580963	-207.506714	-289.516052
1277.416203	334.672119	-210.545883	-301.263580
1277.419540	338.471069	-213.818832	-312.894196
1277.422841	343.205139	-216.857971	-325.284607
1277.426193	347.120972	-220.014038	-338.142609
1277.429510	351.329041	-223.579208	-351.468140
1277.432816	355.303345	-226.735245	-364.852112
1277.436244	359.511414	-229.306824	-378.820557
1277.439556	363.368774	-232.112213	-393.724152
1277.442896	367.927551	-234.625381	-408.101685
1277.446200	371.551147	-237.255402	-423.531250
1277.449519	373.772064	-240.528366	-438.668640
1277.452902	377.395691	-242.164810	-455.734619
1277.456245	380.376404	-245.554657	-472.157806
1277.459534	382.831116	-249.119827	-487.937988
1277.462808	384.292236	-251.399185	-505.120972
1277.466140	387.097595	-253.327896	-523.005249
1277.469520	387.214508	-256.659241	-539.428406
1277.472848	388.792511	-259.464630	-557.137329
1277.476644	389.786072	-261.685547	-575.606079
1277.479545	389.260071	-264.666260	-593.841003
1277.483262	389.201630	-266.945618	-613.186462
1277.486603	387.974304	-269.049652	-630.486267
1277.489941	386.805389	-272.264160	-649.656311
1277.493243	385.402679	-274.660431	-669.352417
1277.496605	383.357117	-276.822906	-688.171814
1277.499922	379.616608	-278.342499	-707.517212
1277.503271	376.518982	-280.271179	-727.271729
1277.506583	372.077148	-282.492096	-745.682068
1277.509904	368.161316	-283.836334	-766.254822
1277.513227	363.836334	-284.011658	-786.418457
1277.516586	356.998230	-286.933929	-806.231384
1277.519968	350.861481	-287.050842	-827.271729
1277.523243	343.380493	-286.466370	-847.201599
1277.526578	336.016388	-287.635284	-868.241943
1277.529932	327.717133	-286.407959	-887.937988
1277.533202	318.365875	-285.063690	-908.803101
1277.536662	307.845703	-284.888367	-927.213257
1277.540008	297.383972	-283.661011	-946.383362
1277.543348	286.863800	-280.972534	-966.897644
1277.546665	274.707184	-277.407349	-985.658630
1277.550005	261.615417	-274.777313	-1004.419556
1277.553313	248.523682	-271.153687	-1024.057251
1277.556723	235.256592	-267.004089	-1039.603760
1277.560058	220.937469	-261.627106	-1056.669800
1277.563363	206.092346	-255.782608	-1071.865601
1277.566667	189.318527	-250.464035	-1085.424927
1277.570425	173.538284	-244.093506	-1100.328491
1277.574156	156.238464	-237.547623	-1111.199219
1277.577466	139.581528	-230.767975	-1122.946777
1277.580803	121.054367	-222.760956	-1131.596802
1277.584140	102.001175	-215.221512	-1140.889526
1277.587467	84.175339	-208.032745	-1148.721191
1277.590800	64.946815	-198.915253	-1154.858032
1277.594136	46.185860	-190.148453	-1157.780273
1277.597468	26.080654	-181.849213	-1161.403809
1277.600805	6.793689	-172.556396	-1163.040283
1277.604159	-13.428404	-163.555817	-1165.611938
1277.607530	-32.890709	-155.548798	-1164.209229
1277.610806	-52.528347	-146.080643	-1162.689697
1277.614132	-71.055527	-137.898300	-1159.884277
1277.617485	-90.751602	-128.313263	-1155.559326
1277.620803	-109.512566	-120.306252	-1150.825195
1277.624133	-129.208649	-110.312096	-1142.701294
1277.627466	-147.852722	-102.305077	-1135.512573
1277.630803	-165.970779	-93.772064	-1129.375854
1277.634128	-183.504379	-85.239044	-1117.686768
1277.637463	-202.265335	-76.355354	-1107.926392
1277.640797	-219.623611	-67.939217	-1097.581421
1277.644126	-236.105194	-60.282875	-1084.022217
1277.647482	-251.417892	-51.399185	-1070.170654
1277.650799	-268.191711	-43.158386	-1056.319092
1277.654133	-283.738190	-35.034481	-1041.824585
1277.657463	-298.291046	-25.858562	-1025.401489
1277.660793	-311.382812	-18.260666	-1010.380981
1277.664131	-324.649933	-9.902980	-992.146118
1277.667461	-337.215668	-1.779076	-976.307373
1277.670794	-348.787842	7.396844	-956.494446
1277.674134	-361.061371	15.228521	-939.662170
1277.677460	-371.873749	23.293980	-921.485718
1277.680795	-381.225006	31.476330	-901.263611
1277.684122	-390.400940	39.424896	-884.080688
1277.687462	-399.635315	46.789013	-864.326111
1277.690815	-406.531860	54.153126	-845.097656
1277.694125	-414.363556	61.809467	-824.933899
1277.697457	-421.143219	68.939796	-804.828735
1277.700791	-425.877258	75.544121	-785.015747
1277.704124	-430.436005	82.090004	-765.787231
1277.707456	-434.702515	87.759209	-745.272888
1277.710793	-438.852142	94.012856	-726.044434
1277.714122	-440.780853	99.156052	-706.698975
1277.717458	-443.001770	104.299240	-688.990051
1277.721207	-444.696686	108.741089	-670.404419
1277.724578	-445.339539	113.358269	-651.526611
1277.727492	-446.742249	116.338982	-634.694336
1277.731235	-445.105804	120.196381	-616.576294
1277.734575	-446.099335	123.177086	-599.451782
1277.737893	-446.683807	126.683807	-582.151917
1277.741211	-445.982483	128.904739	-565.144348
1277.744550	-443.118622	130.190536	-549.013428
1277.747883	-442.066650	131.826996	-533.876099
1277.751207	-440.254791	133.989471	-518.329590
1277.754542	-439.085937	134.223251	-504.361206
1277.757882	-437.507874	135.099945	-489.516052
1277.761232	-434.527161	135.509064	-475.430725
1277.764574	-433.182922	136.093506	-461.520752
1277.767902	-429.851562	135.918167	-447.669220
1277.771259	-427.163055	135.859726	-433.934540
1277.774545	-423.305664	136.444183	-421.368774
1277.777880	-420.266510	135.918167	-408.919891
1277.781210	-415.649323	135.392166	-396.529510
1277.784541	-413.077759	135.216827	-384.665100
1277.787871	-410.330780	134.924606	-372.391541
1277.791213	-404.427826	133.580368	-362.338959
1277.794551	-401.388672	133.697250	-349.130310
1277.797890	-397.940399	133.054352	-339.311493
1277.801254	-393.790771	132.703690	-328.732880
1277.804564	-389.465790	131.651672	-318.212738
1277.808300	-384.614838	130.950317	-308.393890
1277.811628	-380.640564	131.125656	-298.224426
1277.814961	-375.906494	130.190536	-288.990051
1277.818321	-370.471069	129.080078	-279.814148
1277.821662	-366.789032	129.080078	-270.813538
1277.825058	-360.301575	128.144943	-262.397430
1277.828377	-356.035065	127.735825	-252.695511
1277.831742	-352.937439	126.683807	-245.272964
1277.834959	-347.151367	125.865578	-236.915268
1277.838289	-343.352417	125.281120	-229.200455
1277.841624	-338.209229	124.229111	-222.479263
1277.845014	-333.241394	123.469315	-215.232025
1277.848315	-328.857971	122.767975	-207.809479
1277.851701	-324.240784	121.774399	-202.432495
1277.855036	-320.208069	121.131500	-196.120407
1277.858365	-315.357117	120.605492	-189.983643
1277.861627	-310.506134	119.378136	-184.898880
1277.864964	-305.888947	118.326126	-179.580368
1277.868298	-303.609589	117.390999	-174.144943
1277.871641	-299.284607	116.806541	-169.644653
1277.875082	-294.316772	115.637634	-164.793686
1277.878393	-290.810059	114.351845	-160.527176
1277.881715	-286.952667	113.007591	-155.150208
1277.885376	-283.971954	112.014030	-151.351257
1277.888320	-278.828766	111.429573	-147.552322
1277.892057	-276.724701	109.617767	-143.753372
1277.895465	-273.743988	108.098183	-139.895966
1277.898377	-270.178833	107.338402	-136.798370
1277.902139	-266.847473	106.286385	-133.233200
1277.905473	-263.983643	104.649910	-129.083588
1277.908808	-261.412048	103.305664	-126.161316
1277.912155	-257.671539	102.253647	-123.706604
